name =JUICE_ROI_GAN_2_0_02
flyby = ['2034 JAN 14 06:38:51', '2034 JAN 15 06:38:51']
Observation TW = <SpiceCell dtype = 1, length = 0, size = 2600, card = 6, is_set = 1, adjust = 0, init = 1, base = 94708076262848, data = 94708076262896>
Res(t) = [0.16163717 0.16152877 0.16142042 0.16131212 0.16120388 0.16109568
 0.16098754 0.16087945 0.16077142 0.16066343 0.1605555  0.16044762
 0.16033979 0.16023202 0.1601243  0.16001663 0.15990901 0.15980145
 0.15969394 0.15958648 0.15947908 0.15937173 0.15926444 0.1591572
 0.15905001 0.15894288 0.1588358  0.15872878 0.15862181 0.15851489
 0.15840803 0.15830123 0.15819447 0.15808778 0.15798114 0.15787455
 0.15776802 0.15766155 0.15755513 0.15744877 0.15734246 0.15723621
 0.15713002 0.15702388 0.1569178  0.15681178 0.15670581 0.1565999
 0.15649405 0.15638825 0.15628251 0.15617683 0.1560712  0.15596564
 0.15586013 0.15575467 0.15564928 0.15554395 0.15543867 0.15533345
 0.15522829 0.15512319 0.15501815 0.15491317 0.15480824 0.15470338
 0.15459857 0.15449382 0.15438914 0.15428451 0.15417994 0.15407544
 0.15397099 0.15386661 0.15376228 0.15365802 0.15355381 0.15344967
 0.15334559 0.15324157 0.15313761 0.15303371 0.15292987 0.1528261
 0.15272238 0.15261873 0.15251514 0.15241162 0.15230815 0.15220475
 0.15210142 0.15199814 0.15189493 0.15179178 0.15168869 0.15158567
 0.15148271 0.15137982 0.15127699 0.15117422 0.15107152 0.15096888
 0.15086631 0.1507638  0.15066136 0.15055898 0.15045667 0.15035442
 0.15025224 0.15015012 0.15004807 0.14994608 0.14984417 0.14974231
 0.14964053 0.14953881 0.14943716 0.14876728 0.14866792 0.14856863
 0.1484694  0.14837024 0.14827115 0.14817212 0.14807316 0.14797428
 0.14787546 0.14777671 0.14767803 0.14757941 0.14748087 0.14738239
 0.14728399 0.14718566 0.14708739 0.1469892  0.14689107 0.14679302
 0.14669503 0.14659712 0.14649928 0.14640151 0.14630381 0.14620618
 0.14610863 0.14601114 0.14591373 0.14581639 0.14571913 0.14562193
 0.14552481 0.14542776 0.14533079 0.14523389 0.14513706 0.14504031
 0.14494363 0.14484702 0.14475049 0.14465403 0.14455765 0.14446135
 0.14436512 0.14426896 0.14417288 0.14407687 0.14398095 0.14388509
 0.14378932 0.14369362 0.143598   0.14350245 0.14340698 0.14331159
 0.14321628 0.14312105 0.14302589 0.14293081 0.14283581 0.14274089
 0.14264604 0.14255128 0.1424566  0.14236199 0.14226747 0.14217302
 0.14207866 0.14198437 0.14189017 0.14179605 0.141702   0.14160804
 0.14151417 0.14142037 0.14132665 0.14123302 0.14113947 0.141046
 0.14095261 0.14085931 0.14076609 0.14067296 0.14057991 0.14048694
 0.14039405 0.14030126 0.14020854 0.14011591 0.14002337 0.13993091
 0.13983853 0.13974625 0.13965405 0.13956193 0.1394699  0.13937796
 0.13928611 0.13919434 0.13910266 0.13901107 0.13891956 0.13882815
 0.13873682 0.138789   0.13869771 0.1386065  0.13851539 0.13842437
 0.13833344 0.13824259 0.13815184 0.13806117 0.1379706  0.13788012
 0.13778973 0.13769943 0.13760922 0.13751911 0.13742908 0.13733915
 0.13724931 0.13715957 0.13706991 0.13698036 0.13689089 0.13680152
 0.13671224 0.13662306 0.13653397 0.13644498 0.13635608 0.13626728
 0.13617857 0.13608996 0.13600145 0.13591303 0.13645706 0.13636714
 0.13627733 0.13618761 0.136098   0.13600848 0.13591907 0.13582977
 0.13574056 0.13565146 0.13556246 0.13547356 0.13538476 0.13529607
 0.13520749 0.13511901 0.13503063 0.13494236 0.13485419 0.13476613
 0.13467818 0.13459033 0.13450259 0.13441495 0.13432742 0.13424
 0.13415269 0.13406548 0.13397838 0.1338914  0.13380452 0.13371775
 0.13363109 0.13354454 0.1334581  0.13337177 0.13328555 0.13319944
 0.13311344 0.13302756 0.13294178 0.13285612 0.13277058 0.13268514
 0.13259982 0.13251461 0.13242952 0.13234454 0.13225968 0.13217493
 0.1320903  0.13200578 0.13192138 0.13183709 0.13175292 0.13166887
 0.13158494 0.13150112 0.13141742 0.13133384 0.13125038 0.13116704
 0.13108382 0.13100072 0.13091774 0.13083488 0.13075213 0.13066952
 0.13058702 0.13050464 0.13042239 0.13034026 0.13025825 0.13017637
 0.13009461 0.13001298 0.12993147 0.12985008 0.12976882 0.12968769
 0.12960668 0.12952579 0.12944504 0.12936441 0.12928391 0.12920354
 0.1291233  0.12904318 0.1289632  0.12888334 0.12880361 0.12872402
 0.12864455 0.12856522 0.12848602 0.12840695 0.12832801 0.12824921
 0.12817054 0.128092   0.12801359 0.12793532 0.12785719 0.12777919
 0.12770133 0.1276236  0.12754601 0.12746855 0.12739124 0.12731406
 0.12723702 0.12716012 0.12708335 0.12700673 0.12693025 0.12685391
 0.1267777  0.12670164 0.12662572 0.12654995 0.12647431 0.12639882
 0.12632348 0.12624827 0.12617321 0.1260983  0.12602353 0.12594891
 0.12587443 0.1258001  0.12572592 0.12565188 0.125578   0.1236184
 0.1235459  0.12397516 0.12390378 0.12383255 0.12376147 0.12369054
 0.12361976 0.12354914 0.12347866 0.12340834 0.12333817 0.12326815
 0.12319829 0.12312858 0.12305903 0.12298963 0.12292039 0.12285131
 0.12278238 0.12271361 0.122645   0.12257655 0.12105057 0.12098316
 0.12091591 0.12084882 0.12078188 0.12071511 0.12064849 0.12058204
 0.12051574 0.12044961 0.12038364 0.12031783 0.12025218 0.1201867
 0.12012138 0.12005623 0.11999124 0.11992642 0.11986176 0.11979727
 0.11973295 0.11966879 0.11960481 0.11954099 0.11947734 0.11941387
 0.11935056 0.11928743 0.11922446 0.11916168 0.11909906 0.11903662
 0.11897435 0.11891226 0.11885034 0.1187886  0.11872703 0.11866565
 0.11860444 0.11854341 0.11848256 0.11842189 0.1183614  0.11830109
 0.11824096 0.11818102 0.11812126 0.11806168 0.11800229 0.11794308
 0.11788406 0.11782522 0.11776657 0.11770811 0.11764984 0.11759175
 0.11753386 0.11747615 0.11741864 0.11736132 0.11730419 0.11724725
 0.11719051 0.11713396 0.11707761 0.11702145 0.11696549 0.11690973
 0.11685416 0.1167988  0.11674363 0.11668866 0.11663389 0.11657933
 0.11652497 0.11647081 0.11641685 0.1163631  0.11630955 0.11625621
 0.11620307 0.11615015 0.11609743 0.11604492 0.11599262 0.11594053
 0.11588865 0.11583698 0.11578553 0.11573429 0.11568326 0.11563245
 0.11558186 0.11553148 0.11548132 0.11543138 0.11538165 0.11533215
 0.11528287 0.11523381 0.11518497 0.11513635 0.11508796 0.1150398
 0.11499186 0.11494414 0.11489666 0.1148494  0.11480237 0.11475557
 0.114709   0.11466267 0.11461656 0.11457069 0.11452506 0.11447966
 0.11443449 0.11438957 0.11434488 0.11430043 0.11425622 0.11421225
 0.11416852 0.11412503 0.11408179 0.11403879 0.11399604 0.11395354
 0.11391128 0.11386927 0.11382751 0.11378599 0.11374474 0.11370373
 0.11366297 0.11362247 0.11358223 0.11354224 0.11350251 0.11346303
 0.11342382 0.11338486 0.11334617 0.11330774 0.11326957 0.11323167
 0.11319403 0.11315666 0.11311955 0.11308271 0.11304615 0.11300985
 0.11297383 0.11293808 0.1129026  0.11286739 0.11283247 0.11279782
 0.11276345 0.11272936 0.11269554 0.11266202 0.11262877 0.11259581
 0.11256313 0.11253074 0.11249863 0.11246682 0.11243529 0.11240406
 0.11237312 0.11234247 0.11231212 0.11228206 0.1122523  0.11222283
 0.11219367 0.11216481 0.11213625 0.11210799 0.11208004 0.11205239
 0.11202505 0.11199802 0.1119713  0.11194489 0.11191879 0.11189301
 0.11186754 0.11184239 0.11181755 0.11179303 0.11176884 0.11174496
 0.11172141 0.11169818 0.11167528 0.11165271 0.11163046 0.11160855
 0.11158696 0.11156571 0.11154479 0.11152421 0.11150397 0.11148406
 0.1114645  0.11144528 0.1114264  0.11140786 0.11138967 0.11137183
 0.11135434 0.11133719 0.11132041 0.11130397 0.11128789 0.11127217
 0.1112568  0.1112418  0.11122716 0.11121288 0.11119897 0.11118542
 0.11117224 0.11115943 0.111147   0.11113493 0.11112324 0.11111193
 0.111101   0.11109045 0.11108028 0.11107049 0.11106109 0.11105207
 0.11104345 0.11103522 0.11102737 0.11101993 0.11101288 0.11100622
 0.11099997 0.11099412 0.11098867 0.11098363 0.110979   0.11097477
 0.11097096 0.11096756 0.11096458 0.11096201 0.11095987 0.11095814
 0.11095684 0.11095596 0.11095551 0.11095549 0.1109559  0.11095675
 0.11095803 0.11095975 0.1109619  0.11096451 0.11096756 0.11097105
 0.11097499 0.11097938 0.11098423 0.11098953 0.11099529 0.1110015
 0.11100818 0.11101533 0.11102294 0.11103103 0.11103958 0.11104861
 0.11105811 0.11106809 0.11107855 0.1110895  0.11110093 0.11111285
 0.11112527 0.11113817 0.11115158 0.11116548 0.11117988 0.11119479
 0.1112102  0.11122613 0.11124256 0.11125951 0.11127698 0.11129497
 0.11131348 0.11133251 0.11135208 0.11137217 0.1113928  0.11141397
 0.11143568 0.11145793 0.11148074 0.11150409 0.11152799 0.11155244
 0.11157745 0.11160302 0.11162915 0.11165585 0.11168313 0.11171097
 0.11173938 0.11176837 0.11179797 0.11182813 0.11185889 0.11189025
 0.1119222  0.11195475 0.1119879  0.11202169 0.11205606 0.11209105
 0.11212666 0.1121629  0.11219975 0.11223723 0.11227535 0.1123141
 0.11235349 0.11239352 0.1124342  0.11247553 0.11251752 0.11256017
 0.11260348 0.11264746 0.11269211 0.11273743 0.11278344 0.11283013
 0.1128775  0.11292557 0.11297434 0.11302381 0.11307398 0.11312486
 0.11317646 0.11322878 0.11328182 0.11333558 0.11339009 0.11344536
 0.11350134 0.11355807 0.11361556 0.1136738  0.1137328  0.11379257
 0.11385312 0.11391444 0.11397657 0.11403946 0.11410315 0.11416763
 0.11423292 0.11429902 0.11436594 0.11443368 0.11450222 0.11457162
 0.11464185 0.11471293 0.11478486 0.11485765 0.1149313  0.11500582
 0.11508122 0.1151575  0.11523466 0.11531272 0.11539169 0.11547156
 0.11555234 0.11563405 0.11571668 0.11580025 0.11588477 0.11597023
 0.11605666 0.11614404 0.1162324  0.11632174 0.11641207 0.11650339
 0.11659572 0.11668906 0.11678342 0.1168788  0.11697523 0.11707269
 0.11717122 0.1172708  0.11737146 0.11747319 0.11757602 0.11767994
 0.11778497 0.11789112 0.1179984  0.11810681 0.11821637 0.11832709
 0.11843898 0.11855205 0.1186663  0.11878175 0.11889842 0.1190163
 0.11913542 0.11925579 0.11937741 0.1195003  0.11962447 0.11974993
 0.1198767  0.12000478 0.1201342  0.12026496 0.12039708 0.12053057
 0.12066545 0.12080172 0.12093941 0.12107853 0.12121909 0.12136112
 0.12150461 0.1216496  0.12179609 0.12194411 0.12209366 0.12224478
 0.12239746 0.12255175 0.12270764 0.12286516 0.12302433 0.12318516
 0.12334769 0.12351192 0.12367788 0.12384559 0.12401507 0.12418634
 0.12435943 0.12453436 0.12471115 0.12488982 0.12507041 0.12525294
 0.12543743 0.1256239  0.1258124  0.12600294 0.12619555 0.12639027
 0.12658711 0.12678613 0.12698733 0.12719092 0.12739662 0.12760461
 0.12781494 0.12802764 0.12824274 0.12846029 0.12868032 0.12890287
 0.12912799 0.12935572 0.12958611 0.12981917 0.130055   0.13029363
 0.13053511 0.13077949 0.13102683 0.13127718 0.13153059 0.13178714
 0.13204687 0.13230986 0.13257617 0.13284588 0.13311904 0.13339575
 0.13367606 0.13396008 0.13424787 0.13453954 0.13483515 0.13513483
 0.13543865 0.13574673 0.13605918 0.1363761  0.13669761 0.13702384
 0.13735492 0.13769099 0.13803218 0.13837866 0.13873057 0.13908808
 0.13945137 0.13982063 0.14019604 0.14057783 0.13282335 0.13308558
 0.1333507  0.13361877 0.13388985 0.13416397 0.13444121 0.13472161
 0.13500524 0.13529216 0.13558243 0.13587611 0.13617329 0.13647402
 0.13677838 0.13708645 0.13739831 0.13771403 0.13803371 0.13835743
 0.13868529 0.13901738 0.1393538  0.13969465 0.14004005 0.14039011
 0.14074495 0.14110468 0.14146945 0.14183937 0.1422146  0.14259527
 0.14298154 0.14337356 0.1437715  0.14325562 0.14365492 0.14406069
 0.14447314 0.14489247 0.14531886 0.14575249 0.14619345 0.14664169
 0.14709668 0.14755554 0.14845141 0.14894892 0.14945721 0.14997682
 0.15050836 0.15572578 0.15634931 0.15698743 0.15763875 0.15881089
 0.15930759 0.16003342 0.16078208 0.1615552  0.16235457 0.16318219
 0.16404024 0.16493118 0.16585768 0.1668227 ]
t = [1.07414595e+09 1.07414595e+09 1.07414595e+09 1.07414596e+09
 1.07414596e+09 1.07414596e+09 1.07414596e+09 1.07414597e+09
 1.07414597e+09 1.07414597e+09 1.07414597e+09 1.07414597e+09
 1.07414598e+09 1.07414598e+09 1.07414598e+09 1.07414598e+09
 1.07414599e+09 1.07414599e+09 1.07414599e+09 1.07414599e+09
 1.07414599e+09 1.07414600e+09 1.07414600e+09 1.07414600e+09
 1.07414600e+09 1.07414601e+09 1.07414601e+09 1.07414601e+09
 1.07414601e+09 1.07414601e+09 1.07414602e+09 1.07414602e+09
 1.07414602e+09 1.07414602e+09 1.07414603e+09 1.07414603e+09
 1.07414603e+09 1.07414603e+09 1.07414603e+09 1.07414604e+09
 1.07414604e+09 1.07414604e+09 1.07414604e+09 1.07414605e+09
 1.07414605e+09 1.07414605e+09 1.07414605e+09 1.07414605e+09
 1.07414606e+09 1.07414606e+09 1.07414606e+09 1.07414606e+09
 1.07414607e+09 1.07414607e+09 1.07414607e+09 1.07414607e+09
 1.07414607e+09 1.07414608e+09 1.07414608e+09 1.07414608e+09
 1.07414608e+09 1.07414609e+09 1.07414609e+09 1.07414609e+09
 1.07414609e+09 1.07414609e+09 1.07414610e+09 1.07414610e+09
 1.07414610e+09 1.07414610e+09 1.07414611e+09 1.07414611e+09
 1.07414611e+09 1.07414611e+09 1.07414611e+09 1.07414612e+09
 1.07414612e+09 1.07414612e+09 1.07414612e+09 1.07414613e+09
 1.07414613e+09 1.07414613e+09 1.07414613e+09 1.07414613e+09
 1.07414614e+09 1.07414614e+09 1.07414614e+09 1.07414614e+09
 1.07414615e+09 1.07414615e+09 1.07414615e+09 1.07414615e+09
 1.07414615e+09 1.07414616e+09 1.07414616e+09 1.07414616e+09
 1.07414616e+09 1.07414617e+09 1.07414617e+09 1.07414617e+09
 1.07414617e+09 1.07414617e+09 1.07414618e+09 1.07414618e+09
 1.07414618e+09 1.07414618e+09 1.07414619e+09 1.07414619e+09
 1.07414619e+09 1.07414619e+09 1.07414619e+09 1.07414620e+09
 1.07414620e+09 1.07414620e+09 1.07414620e+09 1.07414621e+09
 1.07414621e+09 1.07414621e+09 1.07414621e+09 1.07414621e+09
 1.07414622e+09 1.07414622e+09 1.07414622e+09 1.07414622e+09
 1.07414623e+09 1.07414623e+09 1.07414623e+09 1.07414623e+09
 1.07414623e+09 1.07414624e+09 1.07414624e+09 1.07414624e+09
 1.07414624e+09 1.07414625e+09 1.07414625e+09 1.07414625e+09
 1.07414625e+09 1.07414625e+09 1.07414626e+09 1.07414626e+09
 1.07414626e+09 1.07414626e+09 1.07414627e+09 1.07414627e+09
 1.07414627e+09 1.07414627e+09 1.07414627e+09 1.07414628e+09
 1.07414628e+09 1.07414628e+09 1.07414628e+09 1.07414629e+09
 1.07414629e+09 1.07414629e+09 1.07414629e+09 1.07414629e+09
 1.07414630e+09 1.07414630e+09 1.07414630e+09 1.07414630e+09
 1.07414631e+09 1.07414631e+09 1.07414631e+09 1.07414631e+09
 1.07414631e+09 1.07414632e+09 1.07414632e+09 1.07414632e+09
 1.07414632e+09 1.07414633e+09 1.07414633e+09 1.07414633e+09
 1.07414633e+09 1.07414633e+09 1.07414634e+09 1.07414634e+09
 1.07414634e+09 1.07414634e+09 1.07414635e+09 1.07414635e+09
 1.07414635e+09 1.07414635e+09 1.07414635e+09 1.07414636e+09
 1.07414636e+09 1.07414636e+09 1.07414636e+09 1.07414637e+09
 1.07414637e+09 1.07414637e+09 1.07414637e+09 1.07414637e+09
 1.07414638e+09 1.07414638e+09 1.07414638e+09 1.07414638e+09
 1.07414639e+09 1.07414639e+09 1.07414639e+09 1.07414639e+09
 1.07414639e+09 1.07414640e+09 1.07414640e+09 1.07414640e+09
 1.07414640e+09 1.07414641e+09 1.07414641e+09 1.07414641e+09
 1.07414641e+09 1.07414641e+09 1.07414642e+09 1.07414642e+09
 1.07414642e+09 1.07414642e+09 1.07414643e+09 1.07414643e+09
 1.07414643e+09 1.07414643e+09 1.07414643e+09 1.07414644e+09
 1.07414644e+09 1.07414644e+09 1.07414644e+09 1.07414645e+09
 1.07414645e+09 1.07414645e+09 1.07414645e+09 1.07414645e+09
 1.07414646e+09 1.07414646e+09 1.07414646e+09 1.07414646e+09
 1.07414647e+09 1.07414647e+09 1.07414647e+09 1.07414647e+09
 1.07414647e+09 1.07414648e+09 1.07414648e+09 1.07414648e+09
 1.07414648e+09 1.07414649e+09 1.07414649e+09 1.07414649e+09
 1.07414649e+09 1.07414649e+09 1.07414650e+09 1.07414650e+09
 1.07414650e+09 1.07414650e+09 1.07414651e+09 1.07414651e+09
 1.07414651e+09 1.07414651e+09 1.07414651e+09 1.07414652e+09
 1.07414652e+09 1.07414652e+09 1.07414652e+09 1.07414653e+09
 1.07414653e+09 1.07414653e+09 1.07414653e+09 1.07414653e+09
 1.07414654e+09 1.07414654e+09 1.07414654e+09 1.07414654e+09
 1.07414654e+09 1.07414655e+09 1.07414655e+09 1.07414655e+09
 1.07414655e+09 1.07414656e+09 1.07414656e+09 1.07414656e+09
 1.07414656e+09 1.07414656e+09 1.07414657e+09 1.07414657e+09
 1.07414657e+09 1.07414657e+09 1.07414658e+09 1.07414658e+09
 1.07414658e+09 1.07414658e+09 1.07414658e+09 1.07414659e+09
 1.07414659e+09 1.07414659e+09 1.07414659e+09 1.07414660e+09
 1.07414660e+09 1.07414660e+09 1.07414660e+09 1.07414660e+09
 1.07414661e+09 1.07414661e+09 1.07414661e+09 1.07414661e+09
 1.07414662e+09 1.07414662e+09 1.07414662e+09 1.07414662e+09
 1.07414662e+09 1.07414663e+09 1.07414663e+09 1.07414663e+09
 1.07414663e+09 1.07414664e+09 1.07414664e+09 1.07414664e+09
 1.07414664e+09 1.07414664e+09 1.07414665e+09 1.07414665e+09
 1.07414665e+09 1.07414665e+09 1.07414666e+09 1.07414666e+09
 1.07414666e+09 1.07414666e+09 1.07414666e+09 1.07414667e+09
 1.07414667e+09 1.07414667e+09 1.07414667e+09 1.07414668e+09
 1.07414668e+09 1.07414668e+09 1.07414668e+09 1.07414668e+09
 1.07414669e+09 1.07414669e+09 1.07414669e+09 1.07414669e+09
 1.07414670e+09 1.07414670e+09 1.07414670e+09 1.07414670e+09
 1.07414670e+09 1.07414671e+09 1.07414671e+09 1.07414671e+09
 1.07414671e+09 1.07414672e+09 1.07414672e+09 1.07414672e+09
 1.07414672e+09 1.07414672e+09 1.07414673e+09 1.07414673e+09
 1.07414673e+09 1.07414673e+09 1.07414674e+09 1.07414674e+09
 1.07414674e+09 1.07414674e+09 1.07414674e+09 1.07414675e+09
 1.07414675e+09 1.07414675e+09 1.07414675e+09 1.07414676e+09
 1.07414676e+09 1.07414676e+09 1.07414676e+09 1.07414676e+09
 1.07414677e+09 1.07414677e+09 1.07414677e+09 1.07414677e+09
 1.07414678e+09 1.07414678e+09 1.07414678e+09 1.07414678e+09
 1.07414678e+09 1.07414679e+09 1.07414679e+09 1.07414679e+09
 1.07414679e+09 1.07414680e+09 1.07414680e+09 1.07414680e+09
 1.07414680e+09 1.07414680e+09 1.07414681e+09 1.07414681e+09
 1.07414681e+09 1.07414681e+09 1.07414682e+09 1.07414682e+09
 1.07414682e+09 1.07414682e+09 1.07414682e+09 1.07414683e+09
 1.07414683e+09 1.07414683e+09 1.07414683e+09 1.07414684e+09
 1.07414684e+09 1.07414684e+09 1.07414684e+09 1.07414684e+09
 1.07414685e+09 1.07414685e+09 1.07414685e+09 1.07414685e+09
 1.07414686e+09 1.07414686e+09 1.07414686e+09 1.07414686e+09
 1.07414686e+09 1.07414687e+09 1.07414687e+09 1.07414687e+09
 1.07414687e+09 1.07414688e+09 1.07414688e+09 1.07414688e+09
 1.07414688e+09 1.07414688e+09 1.07414689e+09 1.07414689e+09
 1.07414689e+09 1.07414689e+09 1.07414690e+09 1.07414690e+09
 1.07414690e+09 1.07414690e+09 1.07414690e+09 1.07414691e+09
 1.07414691e+09 1.07414691e+09 1.07414691e+09 1.07414692e+09
 1.07414692e+09 1.07414692e+09 1.07414692e+09 1.07414692e+09
 1.07414693e+09 1.07414693e+09 1.07414693e+09 1.07414693e+09
 1.07414694e+09 1.07414694e+09 1.07414694e+09 1.07414694e+09
 1.07414694e+09 1.07414695e+09 1.07414695e+09 1.07414695e+09
 1.07414695e+09 1.07414696e+09 1.07414696e+09 1.07414696e+09
 1.07414696e+09 1.07414696e+09 1.07414697e+09 1.07414697e+09
 1.07414697e+09 1.07414697e+09 1.07414698e+09 1.07414698e+09
 1.07414698e+09 1.07414698e+09 1.07414698e+09 1.07414699e+09
 1.07414699e+09 1.07414699e+09 1.07414699e+09 1.07414700e+09
 1.07414700e+09 1.07414700e+09 1.07414700e+09 1.07414700e+09
 1.07414701e+09 1.07414701e+09 1.07414701e+09 1.07414701e+09
 1.07414702e+09 1.07414702e+09 1.07414702e+09 1.07414702e+09
 1.07414702e+09 1.07414703e+09 1.07414703e+09 1.07414703e+09
 1.07414703e+09 1.07414704e+09 1.07414704e+09 1.07414704e+09
 1.07414704e+09 1.07414704e+09 1.07414705e+09 1.07414705e+09
 1.07414705e+09 1.07414705e+09 1.07414706e+09 1.07414706e+09
 1.07414706e+09 1.07414706e+09 1.07414706e+09 1.07414707e+09
 1.07414707e+09 1.07414707e+09 1.07414707e+09 1.07414708e+09
 1.07414708e+09 1.07414708e+09 1.07414708e+09 1.07414708e+09
 1.07414709e+09 1.07414709e+09 1.07414709e+09 1.07414709e+09
 1.07414710e+09 1.07414710e+09 1.07414710e+09 1.07414710e+09
 1.07414710e+09 1.07414711e+09 1.07414711e+09 1.07414711e+09
 1.07414711e+09 1.07414712e+09 1.07414712e+09 1.07414712e+09
 1.07414712e+09 1.07414712e+09 1.07414713e+09 1.07414713e+09
 1.07414713e+09 1.07414713e+09 1.07414714e+09 1.07414714e+09
 1.07414714e+09 1.07414714e+09 1.07414714e+09 1.07414715e+09
 1.07414715e+09 1.07414715e+09 1.07414715e+09 1.07414716e+09
 1.07414716e+09 1.07414716e+09 1.07414716e+09 1.07414716e+09
 1.07414717e+09 1.07414717e+09 1.07414717e+09 1.07414717e+09
 1.07414718e+09 1.07414718e+09 1.07414718e+09 1.07414718e+09
 1.07414718e+09 1.07414719e+09 1.07414719e+09 1.07414719e+09
