name =JUICE_ROI_GAN_4_3_07
flyby = ['2034 SEP 28 18:48:51', '2034 SEP 29 18:48:51']
Observation TW = <SpiceCell dtype = 1, length = 0, size = 2600, card = 6, is_set = 1, adjust = 0, init = 1, base = 94119211931568, data = 94119211931616>
Res(t) = [2.11333951 2.11334    2.11334054 2.11334112 2.11334175 2.11334242
 2.11334313 2.11334388 2.11334468 2.11334552 2.11334641 2.11334734
 2.11334832 2.11334934 2.1133504  2.1133515  2.11335265 2.11335384
 2.11335508 2.11335636 2.11335768 2.11335905 2.11336046 2.11336192
 2.11336341 2.11336495 2.11336654 2.11336817 2.11336984 2.11337156
 2.11337331 2.11337512 2.11337696 2.11337885 2.11338079 2.11338276
 2.11338478 2.11338684 2.11338895 2.1133911  2.1133933  2.11339553
 2.11339781 2.11340013 2.1134025  2.11340491 2.11340736 2.11340986
 2.1134124  2.11341499 2.11341761 2.11342028 2.11342299 2.11342575
 2.11342855 2.11343139 2.11343428 2.11343721 2.11344018 2.1134432
 2.11344626 2.11344936 2.1134525  2.11345569 2.11345892 2.1134622
 2.11346552 2.11346888 2.11347228 2.11347573 2.11347922 2.11348275
 2.11348633 2.11348995 2.11349361 2.11349732 2.11350106 2.11350486
 2.11350869 2.11351257 2.11351649 2.11352045 2.11352446 2.11352851
 2.1135326  2.11353673 2.11354091 2.11354513 2.1135494  2.1135537
 2.11355805 2.11356245 2.11356688 2.11357136 2.11357588 2.11358044
 2.11358505 2.1135897  2.11359439 2.11359913 2.11360391 2.11360873
 2.11361359 2.1136185  2.11362344 2.11362844 2.11363347 2.11363855
 2.11364367 2.11364883 2.11365403 2.11365928 2.11366457 2.11366991
 2.11367528 2.1136807  2.11368616 2.11369166 2.11369721 2.1137028
 2.11370843 2.1137141  2.11371982 2.11372558 2.11373138 2.11373722
 2.11374311 2.11374904 2.11375501 2.11376102 2.11376708 2.11377318
 2.11377932 2.1137855  2.11379173 2.113798   2.11380431 2.11381066
 2.11381706 2.1138235  2.11382998 2.1138365  2.11384307 2.11384967
 2.11385632 2.11386301 2.11386975 2.11387653 2.11388335 2.11389021
 2.11389711 2.11390406 2.11391105 2.11391808 2.11392515 2.11393226
 2.11393942 2.11394662 2.11395386 2.11396115 2.11396847 2.11397584
 2.11398325 2.1139907  2.1139982  2.11400573 2.11401331 2.11402093
 2.1140286  2.1140363  2.11404405 2.11405184 2.11405967 2.11406754
 2.11407546 2.11408341 2.11409141 2.11409946 2.11410754 2.11411566
 2.11412383 2.11413204 2.11414029 2.11414859 2.11415692 2.1141653
 2.11417372 2.11418218 2.11419068 2.11419923 2.11420781 2.11421644
 2.11422511 2.11423383 2.11424258 2.11425138 2.11426021 2.11426909
 2.11427802 2.11428698 2.11429598 2.11430503 2.11431412 2.11432325
 2.11433242 2.11434164 2.11435089 2.11436019 2.11436953 2.11437891
 2.11438833 2.1143978  2.1144073  2.11441685 2.11442644 2.11443607
 2.11444574 2.11445546 2.11446521 2.11447501 2.11448485 2.11449473
 2.11450465 2.11451461 2.11452462 2.11453466 2.11454475 2.11455488
 2.11456506 2.11457527 2.11458552 2.11459582 2.11460616 2.11461654
 2.11462696 2.11463742 2.11464792 2.11465847 2.11466905 2.11467968
 2.11469035 2.11470106 2.11471181 2.1147226  2.11473344 2.11474432
 2.11475523 2.11476619 2.11477719 2.11478823 2.11479932 2.11481044
 2.11482161 2.11483281 2.11484406 2.11485535 2.11486668 2.11487805
 2.11488946 2.11490092 2.11491241 2.11492395 2.11493553 2.11494715
 2.11495881 2.11497051 2.11498225 2.11499403 2.11500586 2.11501773
 2.11502963 2.11504158 2.11505357 2.1150656  2.11507767 2.11508979
 2.11510194 2.11511413 2.11512637 2.11513865 2.11515097 2.11516332
 2.11517573 2.11518817 2.11520065 2.11521317 2.11522574 2.11523834
 2.11525099 2.11526367 2.1152764  2.11528917 2.11530198 2.11531483
 2.11532772 2.11534066 2.11535363 2.11536664 2.1153797  2.1153928
 2.11540593 2.11541911 2.11543233 2.11544559 2.11545889 2.11547223
 2.11548562 2.11549904 2.1155125  2.11552601 2.11553955 2.11555314
 2.11556677 2.11558043 2.11559414 2.11560789 2.11562168 2.11563551
 2.11564938 2.11566329 2.11567725 2.11569124 2.11570527 2.11571935
 2.11573346 2.11574762 2.11576182 2.11577605 2.11579033 2.11580465
 2.11581901 2.11583341 2.11584785 2.11586233 2.11587685 2.11589141
 2.11590602 2.11592066 2.11593534 2.11595007 2.11596483 2.11597964
 2.11599448 2.11600937 2.1160243  2.11603926 2.11605427 2.11606932
 2.11608441 2.11609953 2.1161147  2.11612991 2.11614516 2.11616045
 2.11617579 2.11619116 2.11620657 2.11622202 2.11623751 2.11625305
 2.11626862 2.11628423 2.11629989 2.11631558 2.11633131 2.11634709
 2.1163629  2.11637876 2.11639465 2.11641059 2.11642657 2.11644258
 2.11645864 2.11647474 2.11649087 2.11650705 2.11652327 2.11653953
 2.11655582 2.11657216 2.11658854 2.11660496 2.11662142 2.11663792
 2.11665445 2.11667103 2.11668765 2.11670431 2.11672101 2.11673775
 2.11675453 2.11677135 2.11678821 2.11680511 2.11682204 2.11683903
 2.11685604 2.1168731  2.1168902  2.11690734 2.11692452 2.11694174
 2.116959   2.1169763  2.11699364 2.11701102 2.11702844 2.1170459
 2.1170634  2.11708094 2.11709852 2.11711614 2.1171338  2.1171515
 2.11716923 2.11718701 2.11720483 2.11722269 2.11724059 2.11725853
 2.1172765  2.11729452 2.11731258 2.11733068 2.11734881 2.11736699
 2.11738521 2.11740346 2.11742176 2.1174401  2.11745847 2.11747689
 2.11749534 2.11751384 2.11753237 2.11755095 2.11756956 2.11758821
 2.11760691 2.11762564 2.11764442 2.11766323 2.11768208 2.11770097
 2.1177199  2.11773887 2.11775788 2.11777693 2.11779602 2.11781515
 2.11783432 2.11785353 2.11787278 2.11789207 2.1179114  2.11793076
 2.11795017 2.11796961 2.1179891  2.11800862 2.11802819 2.11804779
 2.11806744 2.11808712 2.11810684 2.1181266  2.11814641 2.11816624
 2.11818613 2.11820604 2.118226   2.118246   2.11826604 2.11828612
 2.11830624 2.11832639 2.11834659 2.11836682 2.1183871  2.11840741
 2.11842776 2.11844815 2.11846858 2.11848906 2.11850957 2.11853012
 2.1185507  2.11857133 2.118592   2.11861271 2.11863345 2.11865424
 2.11867506 2.11869593 2.11871683 2.11873777 2.11875875 2.11877977
 2.11880083 2.11882193 2.11884307 2.11886425 2.11888546 2.11890672
 2.11892801 2.11894935 2.11897072 2.11899213 2.11901358 2.11903507
 2.1190566  2.11907817 2.11909978 2.11912143 2.11914311 2.11916484
 2.1191866  2.1192084  2.11923025 2.11925213 2.11927405 2.119296
 2.119318   2.11934004 2.11936212 2.11938423 2.11940639 2.11942858
 2.11945081 2.11947308 2.11949539 2.11951774 2.11954013 2.11956256
 2.11958502 2.11960753 2.11963007 2.11965265 2.11967527 2.11969793
 2.11972063 2.11974337 2.11976615 2.11978896 2.11981182 2.11983471
 2.11985764 2.11988061 2.11990362 2.11992667 2.11994976 2.11997289
 2.11999605 2.12001925 2.1200425  2.12006578 2.1200891  2.12011246
 2.12013585 2.12015929 2.12018277 2.12020628 2.12022983 2.12025342
 2.12027705 2.12030072 2.12032443 2.12034817 2.12037196 2.12039578
 2.12041964 2.12044354 2.12046748 2.12049146 2.12051547 2.12053953
 2.12056362 2.12058775 2.12061192 2.12063613 2.12066038 2.12068467
 2.12070899 2.12073336 2.12075776 2.1207822  2.12080668 2.1208312
 2.12085575 2.12088034 2.12090498 2.12092965 2.12095436 2.12097911
 2.1210039  2.12102872 2.12105358 2.12107849 2.12110343 2.12112841
 2.12115342 2.12117848 2.12120357 2.12122871 2.12125388 2.12127909
 2.12130434 2.12132962 2.12135495 2.12138031 2.12140571 2.12143115
 2.12145663 2.12148214 2.1215077  2.12153329 2.12155892 2.12158459
 2.1216103  2.12163605 2.12166183 2.12168765 2.12171351 2.12173941
 2.12176535 2.12179133 2.12181734 2.12184339 2.12186948 2.12189561
 2.12192178 2.12194798 2.12197423 2.12200051 2.12202683 2.12205318
 2.12207958 2.12210601 2.12213249 2.122159   2.12218555 2.12221213
 2.12223876 2.12226542 2.12229212 2.12231886 2.12234563 2.12237245
 2.1223993  2.1224262  2.12245313 2.12248009 2.1225071  2.12253414
 2.12256122 2.12258834 2.1226155  2.12264269 2.12266993 2.1226972
 2.12272451 2.12275186 2.12277924 2.12280667 2.12283413 2.12286163
 2.12288916 2.12291674 2.12294435 2.122972   2.12299969 2.12302742
 2.12305518 2.12308299 2.12311083 2.1231387  2.12316662 2.12319457
 2.12322257 2.1232506  2.12327866 2.12330677 2.12333491 2.12336309
 2.12339131 2.12341957 2.12344786 2.1234762  2.12350457 2.12353298
 2.12356142 2.1235899  2.12361843 2.12364699 2.12367558 2.12370422
 2.12373289 2.1237616  2.12379035 2.12381913 2.12384795 2.12387681
 2.12390571 2.12393465 2.12396362 2.12399264 2.12402168 2.12405077
 2.1240799  2.12410906 2.12413826 2.1241675  2.12419677 2.12422608
 2.12425543 2.12428482 2.12431425 2.12434371 2.12437321 2.12440275
 2.12443233 2.12446194 2.12449159 2.12452128 2.124551   2.12458077
 2.12461057 2.12464041 2.12467028 2.1247002  2.12473015 2.12476014
 2.12479016 2.12482023 2.12485033 2.12488047 2.12491064 2.12494086
 2.12497111 2.1250014  2.12503172 2.12506209 2.12509249 2.12512292
 2.1251534  2.12518391 2.12521446 2.12524505 2.12527568 2.12530634
 2.12533704 2.12536778 2.12539855 2.12542936 2.12546021 2.1254911
 2.12552202 2.12555298 2.12558398 2.12561502 2.12564609 2.1256772
 2.12570835 2.12573953 2.12577075 2.12580201 2.12583331 2.12586465
 2.12589602 2.12592743 2.12595887 2.12599035 2.12602187 2.12605343
 2.12608503 2.12611666 2.12614833 2.12618003 2.12621178 2.12624356
 2.12627538 2.12630723 2.12633912 2.12637105 2.12640302 2.12643502
 2.12646706 2.12649914 2.12653125 2.12656341 2.1265956  2.12662782
 2.12666009 2.12669239 2.12672472 2.1267571  2.12678951 2.12682196
 2.12685444 2.12688697 2.12691953 2.12695212 2.12698476 2.12701743
 2.12705014 2.12708288 2.12711566 2.12714848 2.12718134 2.12721423
 2.12724716 2.12728013 2.12731313 2.12734617 2.12737925 2.12741237
 2.12744552 2.12747871 2.12751193 2.12754519 2.12757849 2.12761183
 2.1276452  2.12767861 2.12771206 2.12774554 2.12777906 2.12781262
 2.12784622 2.12787985 2.12791351 2.12794722 2.12798096 2.12801474
 2.12804856 2.12808241 2.1281163  2.12815022 2.12818419 2.12821818
 2.12825222 2.12828629 2.1283204  2.12835455 2.12838873 2.12842296
 2.12845721 2.12849151 2.12852584 2.1285602  2.12859461 2.12862905
 2.12866352 2.12869804 2.12873259 2.12876718 2.1288018  2.12883646
 2.12887116 2.12890589 2.12894066 2.12897547 2.12901031 2.1290452
 2.12908011 2.12911507 2.12915006 2.12918508 2.12922015 2.12925525
 2.12929039 2.12932556 2.12936077 2.12939602 2.1294313  2.12946662
 2.12950198 2.12953737 2.1295728  2.12960827 2.12964377 2.12967931
 2.12971488 2.1297505  2.12978615 2.12982183 2.12985755 2.12989331
 2.12992911 2.12996494 2.13000081 2.13003671 2.13007265 2.13010863
 2.13014464 2.13018069 2.13021678 2.1302529  2.13028906 2.13032526
 2.13036149 2.13039776 2.13043406 2.1304704  2.13050678 2.1305432
 2.13057965 2.13061614 2.13065266 2.13068922 2.13072581 2.13076245
 2.13079912 2.13083582 2.13087256 2.13090934 2.13094616 2.13098301
 2.13101989 2.13105682 2.13109378 2.13113077 2.1311678  2.13120487
 2.13124198 2.13127912 2.1313163  2.13135351 2.13139076 2.13142804
 2.13146537 2.13150273 2.13154012 2.13157755 2.13161502 2.13165252
 2.13169006 2.13172764 2.13176525 2.1318029  2.13184058 2.1318783
 2.13191606 2.13195385 2.13199168 2.13202955 2.13206745 2.13210539
 2.13214336 2.13218137 2.13221941 2.1322575  2.13229562 2.13233377
 2.13237196 2.13241019 2.13244845 2.13248675 2.13252508 2.13256345
 2.13260186 2.1326403  2.13267878 2.1327173  2.13275585 2.13279444
 2.13283306 2.13287172 2.13291041 2.13294915 2.13298791 2.13302672
 2.13306556 2.13310443 2.13314334 2.13318229 2.13322127 2.13326029
 2.13329935 2.13333844 2.13337757 2.13341673 2.13345593 2.13349516
 2.13353444 2.13357374 2.13361308 2.13365246 2.13369188 2.13373133
 2.13377082 2.13381034 2.1338499  2.13388949 2.13392912 2.13396879
 2.13400849 2.13404823 2.134088   2.13412781]
t = [1.09642335e+09 1.09642336e+09 1.09642336e+09 1.09642337e+09
 1.09642337e+09 1.09642338e+09 1.09642339e+09 1.09642339e+09
 1.09642340e+09 1.09642340e+09 1.09642341e+09 1.09642342e+09
 1.09642342e+09 1.09642343e+09 1.09642343e+09 1.09642344e+09
 1.09642345e+09 1.09642345e+09 1.09642346e+09 1.09642346e+09
 1.09642347e+09 1.09642348e+09 1.09642348e+09 1.09642349e+09
 1.09642349e+09 1.09642350e+09 1.09642351e+09 1.09642351e+09
 1.09642352e+09 1.09642352e+09 1.09642353e+09 1.09642354e+09
 1.09642354e+09 1.09642355e+09 1.09642355e+09 1.09642356e+09
 1.09642357e+09 1.09642357e+09 1.09642358e+09 1.09642358e+09
 1.09642359e+09 1.09642360e+09 1.09642360e+09 1.09642361e+09
 1.09642361e+09 1.09642362e+09 1.09642363e+09 1.09642363e+09
 1.09642364e+09 1.09642364e+09 1.09642365e+09 1.09642366e+09
 1.09642366e+09 1.09642367e+09 1.09642367e+09 1.09642368e+09
 1.09642369e+09 1.09642369e+09 1.09642370e+09 1.09642370e+09
 1.09642371e+09 1.09642372e+09 1.09642372e+09 1.09642373e+09
 1.09642373e+09 1.09642374e+09 1.09642375e+09 1.09642375e+09
 1.09642376e+09 1.09642376e+09 1.09642377e+09 1.09642378e+09
 1.09642378e+09 1.09642379e+09 1.09642379e+09 1.09642380e+09
 1.09642381e+09 1.09642381e+09 1.09642382e+09 1.09642382e+09
 1.09642383e+09 1.09642384e+09 1.09642384e+09 1.09642385e+09
 1.09642385e+09 1.09642386e+09 1.09642387e+09 1.09642387e+09
 1.09642388e+09 1.09642388e+09 1.09642389e+09 1.09642390e+09
 1.09642390e+09 1.09642391e+09 1.09642391e+09 1.09642392e+09
 1.09642393e+09 1.09642393e+09 1.09642394e+09 1.09642394e+09
 1.09642395e+09 1.09642396e+09 1.09642396e+09 1.09642397e+09
 1.09642397e+09 1.09642398e+09 1.09642399e+09 1.09642399e+09
 1.09642400e+09 1.09642400e+09 1.09642401e+09 1.09642402e+09
 1.09642402e+09 1.09642403e+09 1.09642403e+09 1.09642404e+09
 1.09642405e+09 1.09642405e+09 1.09642406e+09 1.09642406e+09
 1.09642407e+09 1.09642408e+09 1.09642408e+09 1.09642409e+09
 1.09642409e+09 1.09642410e+09 1.09642411e+09 1.09642411e+09
 1.09642412e+09 1.09642412e+09 1.09642413e+09 1.09642414e+09
 1.09642414e+09 1.09642415e+09 1.09642415e+09 1.09642416e+09
 1.09642417e+09 1.09642417e+09 1.09642418e+09 1.09642419e+09
 1.09642419e+09 1.09642420e+09 1.09642420e+09 1.09642421e+09
 1.09642422e+09 1.09642422e+09 1.09642423e+09 1.09642423e+09
 1.09642424e+09 1.09642425e+09 1.09642425e+09 1.09642426e+09
 1.09642426e+09 1.09642427e+09 1.09642428e+09 1.09642428e+09
 1.09642429e+09 1.09642429e+09 1.09642430e+09 1.09642431e+09
 1.09642431e+09 1.09642432e+09 1.09642432e+09 1.09642433e+09
 1.09642434e+09 1.09642434e+09 1.09642435e+09 1.09642435e+09
 1.09642436e+09 1.09642437e+09 1.09642437e+09 1.09642438e+09
 1.09642438e+09 1.09642439e+09 1.09642440e+09 1.09642440e+09
 1.09642441e+09 1.09642441e+09 1.09642442e+09 1.09642443e+09
 1.09642443e+09 1.09642444e+09 1.09642444e+09 1.09642445e+09
 1.09642446e+09 1.09642446e+09 1.09642447e+09 1.09642447e+09
 1.09642448e+09 1.09642449e+09 1.09642449e+09 1.09642450e+09
 1.09642450e+09 1.09642451e+09 1.09642452e+09 1.09642452e+09
 1.09642453e+09 1.09642453e+09 1.09642454e+09 1.09642455e+09
 1.09642455e+09 1.09642456e+09 1.09642456e+09 1.09642457e+09
 1.09642458e+09 1.09642458e+09 1.09642459e+09 1.09642459e+09
 1.09642460e+09 1.09642461e+09 1.09642461e+09 1.09642462e+09
 1.09642462e+09 1.09642463e+09 1.09642464e+09 1.09642464e+09
 1.09642465e+09 1.09642465e+09 1.09642466e+09 1.09642467e+09
 1.09642467e+09 1.09642468e+09 1.09642468e+09 1.09642469e+09
 1.09642470e+09 1.09642470e+09 1.09642471e+09 1.09642471e+09
 1.09642472e+09 1.09642473e+09 1.09642473e+09 1.09642474e+09
 1.09642474e+09 1.09642475e+09 1.09642476e+09 1.09642476e+09
 1.09642477e+09 1.09642477e+09 1.09642478e+09 1.09642479e+09
 1.09642479e+09 1.09642480e+09 1.09642480e+09 1.09642481e+09
 1.09642482e+09 1.09642482e+09 1.09642483e+09 1.09642483e+09
 1.09642484e+09 1.09642485e+09 1.09642485e+09 1.09642486e+09
 1.09642486e+09 1.09642487e+09 1.09642488e+09 1.09642488e+09
 1.09642489e+09 1.09642489e+09 1.09642490e+09 1.09642491e+09
 1.09642491e+09 1.09642492e+09 1.09642492e+09 1.09642493e+09
 1.09642494e+09 1.09642494e+09 1.09642495e+09 1.09642495e+09
 1.09642496e+09 1.09642497e+09 1.09642497e+09 1.09642498e+09
 1.09642498e+09 1.09642499e+09 1.09642500e+09 1.09642500e+09
 1.09642501e+09 1.09642501e+09 1.09642502e+09 1.09642503e+09
 1.09642503e+09 1.09642504e+09 1.09642504e+09 1.09642505e+09
 1.09642506e+09 1.09642506e+09 1.09642507e+09 1.09642507e+09
 1.09642508e+09 1.09642509e+09 1.09642509e+09 1.09642510e+09
 1.09642510e+09 1.09642511e+09 1.09642512e+09 1.09642512e+09
 1.09642513e+09 1.09642513e+09 1.09642514e+09 1.09642515e+09
 1.09642515e+09 1.09642516e+09 1.09642516e+09 1.09642517e+09
 1.09642518e+09 1.09642518e+09 1.09642519e+09 1.09642519e+09
 1.09642520e+09 1.09642521e+09 1.09642521e+09 1.09642522e+09
 1.09642522e+09 1.09642523e+09 1.09642524e+09 1.09642524e+09
 1.09642525e+09 1.09642525e+09 1.09642526e+09 1.09642527e+09
 1.09642527e+09 1.09642528e+09 1.09642528e+09 1.09642529e+09
 1.09642530e+09 1.09642530e+09 1.09642531e+09 1.09642531e+09
 1.09642532e+09 1.09642533e+09 1.09642533e+09 1.09642534e+09
 1.09642534e+09 1.09642535e+09 1.09642536e+09 1.09642536e+09
 1.09642537e+09 1.09642537e+09 1.09642538e+09 1.09642539e+09
 1.09642539e+09 1.09642540e+09 1.09642540e+09 1.09642541e+09
 1.09642542e+09 1.09642542e+09 1.09642543e+09 1.09642543e+09
 1.09642544e+09 1.09642545e+09 1.09642545e+09 1.09642546e+09
 1.09642546e+09 1.09642547e+09 1.09642548e+09 1.09642548e+09
 1.09642549e+09 1.09642549e+09 1.09642550e+09 1.09642551e+09
 1.09642551e+09 1.09642552e+09 1.09642552e+09 1.09642553e+09
 1.09642554e+09 1.09642554e+09 1.09642555e+09 1.09642555e+09
 1.09642556e+09 1.09642557e+09 1.09642557e+09 1.09642558e+09
 1.09642558e+09 1.09642559e+09 1.09642560e+09 1.09642560e+09
 1.09642561e+09 1.09642561e+09 1.09642562e+09 1.09642563e+09
 1.09642563e+09 1.09642564e+09 1.09642564e+09 1.09642565e+09
 1.09642566e+09 1.09642566e+09 1.09642567e+09 1.09642567e+09
 1.09642568e+09 1.09642569e+09 1.09642569e+09 1.09642570e+09
 1.09642570e+09 1.09642571e+09 1.09642572e+09 1.09642572e+09
 1.09642573e+09 1.09642573e+09 1.09642574e+09 1.09642575e+09
 1.09642575e+09 1.09642576e+09 1.09642576e+09 1.09642577e+09
 1.09642578e+09 1.09642578e+09 1.09642579e+09 1.09642579e+09
 1.09642580e+09 1.09642581e+09 1.09642581e+09 1.09642582e+09
 1.09642582e+09 1.09642583e+09 1.09642584e+09 1.09642584e+09
 1.09642585e+09 1.09642585e+09 1.09642586e+09 1.09642587e+09
 1.09642587e+09 1.09642588e+09 1.09642588e+09 1.09642589e+09
 1.09642590e+09 1.09642590e+09 1.09642591e+09 1.09642591e+09
 1.09642592e+09 1.09642593e+09 1.09642593e+09 1.09642594e+09
 1.09642594e+09 1.09642595e+09 1.09642596e+09 1.09642596e+09
 1.09642597e+09 1.09642597e+09 1.09642598e+09 1.09642599e+09
 1.09642599e+09 1.09642600e+09 1.09642600e+09 1.09642601e+09
 1.09642602e+09 1.09642602e+09 1.09642603e+09 1.09642603e+09
 1.09642604e+09 1.09642605e+09 1.09642605e+09 1.09642606e+09
 1.09642606e+09 1.09642607e+09 1.09642608e+09 1.09642608e+09
 1.09642609e+09 1.09642609e+09 1.09642610e+09 1.09642611e+09
 1.09642611e+09 1.09642612e+09 1.09642612e+09 1.09642613e+09
 1.09642614e+09 1.09642614e+09 1.09642615e+09 1.09642615e+09
 1.09642616e+09 1.09642617e+09 1.09642617e+09 1.09642618e+09
 1.09642619e+09 1.09642619e+09 1.09642620e+09 1.09642620e+09
 1.09642621e+09 1.09642622e+09 1.09642622e+09 1.09642623e+09
 1.09642623e+09 1.09642624e+09 1.09642625e+09 1.09642625e+09
 1.09642626e+09 1.09642626e+09 1.09642627e+09 1.09642628e+09
 1.09642628e+09 1.09642629e+09 1.09642629e+09 1.09642630e+09
 1.09642631e+09 1.09642631e+09 1.09642632e+09 1.09642632e+09
 1.09642633e+09 1.09642634e+09 1.09642634e+09 1.09642635e+09
 1.09642635e+09 1.09642636e+09 1.09642637e+09 1.09642637e+09
 1.09642638e+09 1.09642638e+09 1.09642639e+09 1.09642640e+09
 1.09642640e+09 1.09642641e+09 1.09642641e+09 1.09642642e+09
 1.09642643e+09 1.09642643e+09 1.09642644e+09 1.09642644e+09
 1.09642645e+09 1.09642646e+09 1.09642646e+09 1.09642647e+09
 1.09642647e+09 1.09642648e+09 1.09642649e+09 1.09642649e+09
 1.09642650e+09 1.09642650e+09 1.09642651e+09 1.09642652e+09
 1.09642652e+09 1.09642653e+09 1.09642653e+09 1.09642654e+09
 1.09642655e+09 1.09642655e+09 1.09642656e+09 1.09642656e+09
 1.09642657e+09 1.09642658e+09 1.09642658e+09 1.09642659e+09
 1.09642659e+09 1.09642660e+09 1.09642661e+09 1.09642661e+09
 1.09642662e+09 1.09642662e+09 1.09642663e+09 1.09642664e+09
 1.09642664e+09 1.09642665e+09 1.09642665e+09 1.09642666e+09
 1.09642667e+09 1.09642667e+09 1.09642668e+09 1.09642668e+09
 1.09642669e+09 1.09642670e+09 1.09642670e+09 1.09642671e+09
