name =JUICE_ROI_GAN_4_7_02
flyby = ['2034 SEP 28 18:48:51', '2034 SEP 29 18:48:51']
Observation TW = <SpiceCell dtype = 1, length = 0, size = 3200, card = 12, is_set = 1, adjust = 0, init = 1, base = 94275998147472, data = 94275998147520>
Res(t) = [2.16208524 2.15910582 2.15612916 2.15315527 2.15018416 2.14721585
 2.14425034 2.14128767 2.13832784 2.13537086 2.13241675 2.12946552
 2.1265172  2.12357178 2.1206293  2.11768975 2.11475317 2.11181955
 2.10888892 2.10596129 2.10303668 2.1001151  2.09719656 2.09428108
 2.09136868 2.08845936 2.08555315 2.08265006 2.0797501  2.07685328
 2.07395964 2.07106916 2.06818188 2.06529781 2.06241696 2.05953934
 2.05666498 2.05379388 2.05092606 2.04806154 2.04520033 2.04234245
 2.03948791 2.03663672 2.0337889  2.03094446 2.02810343 2.02526581
 2.02243162 2.01960087 2.01677359 2.01394977 2.01112945 2.00831263
 2.00549933 2.00268956 1.99988334 1.99708068 1.9942816  1.99148612
 1.98869424 1.98590598 1.98312136 1.98034039 1.97756309 1.97478947
 1.97201955 1.96925333 1.96649084 1.9637321  1.96097711 1.95822588
 1.95547845 1.95273481 1.94999498 1.94725899 1.94452683 1.94179854
 1.93907411 1.93635358 1.93363694 1.93092423 1.92821544 1.9255106
 1.92280971 1.9201128  1.91741988 1.91473097 1.91204607 1.9093652
 1.90668838 1.90401562 1.90134693 1.89868234 1.89602184 1.89336547
 1.89071322 1.88806513 1.88542119 1.88278143 1.88014586 1.87751449
 1.87488733 1.87226441 1.86964573 1.86703131 1.86442117 1.86181531
 1.85921375 1.85661651 1.85402359 1.85143502 1.8488508  1.84627095
 1.84369549 1.84112442 1.83855702 1.83599472 1.83343684 1.83088342
 1.82833445 1.82578996 1.82324996 1.82071445 1.81818346 1.815657
 1.81313508 1.81061771 1.8081049  1.80559668 1.80309305 1.80059402
 1.79809961 1.79560983 1.7931247  1.79064422 1.78816841 1.78569729
 1.78323086 1.78076913 1.77831213 1.77585985 1.77341233 1.77096956
 1.76853155 1.76609833 1.76366991 1.76124629 1.75882749 1.75641351
 1.75400438 1.75160011 1.7492007  1.74680617 1.74441653 1.74203179
 1.73965196 1.73727705 1.73490709 1.73254207 1.73018201 1.72782692
 1.72547681 1.7231317  1.72079159 1.7184565  1.71612643 1.7138014
 1.71148142 1.7091665  1.70685665 1.70455188 1.7022522  1.69995762
 1.69766816 1.69538382 1.69310462 1.69083056 1.68856166 1.68629792
 1.68403936 1.68178598 1.6795378  1.67729482 1.67505706 1.67282453
 1.67059723 1.66837517 1.66615838 1.66394684 1.66174058 1.6595396
 1.65734392 1.65515354 1.65296847 1.65078872 1.6486143  1.64644522
 1.64428149 1.64212311 1.6399701  1.63782247 1.63568022 1.63354336
 1.6314119  1.62928585 1.62716521 1.62505    1.62294023 1.6208359
 1.61873701 1.61664359 1.61455563 1.61247315 1.61039615 1.60832463
 1.60625862 1.60419811 1.60214311 1.60009363 1.59804968 1.59601127
 1.59397839 1.59195106 1.58992929 1.58791309 1.58590245 1.58389739
 1.58189791 1.57990402 1.57791573 1.57593304 1.57395596 1.5719845
 1.57001866 1.56805844 1.56610387 1.56415493 1.56221164 1.560274
 1.55834202 1.5564157  1.55449505 1.55258008 1.55067079 1.54876718
 1.54686926 1.54497705 1.54309053 1.54120972 1.53933462 1.53746524
 1.53560158 1.53374364 1.53189144 1.53004497 1.52820424 1.52636926
 1.52454002 1.52271654 1.52089882 1.51908685 1.51728066 1.51548023
 1.51368557 1.5118967  1.5101136  1.50833629 1.50656476 1.50479903
 1.50303909 1.50128495 1.49953661 1.49779407 1.49605734 1.49432642
 1.49260132 1.49088203 1.48916856 1.48746091 1.48575909 1.48406309
 1.48237292 1.48068859 1.47901008 1.47733741 1.47567058 1.47400959
 1.47235444 1.47070514 1.46906168 1.46742406 1.4657923  1.46416638
 1.46254632 1.46093211 1.45932375 1.45772125 1.45612461 1.45453382
 1.45294889 1.45136982 1.44979661 1.44822926 1.44666777 1.44511214
 1.44356238 1.44201848 1.44048044 1.43894827 1.43742196 1.43590151
 1.43438693 1.43287821 1.43137535 1.42987836 1.42838723 1.42690196
 1.42542256 1.42394901 1.42248133 1.42101951 1.41956354 1.41811344
 1.41666919 1.4152308  1.41379826 1.41237158 1.41095075 1.40953578
 1.40812665 1.40672338 1.40532595 1.40393436 1.40254863 1.40116873
 1.39979467 1.39842646 1.39706408 1.39570753 1.39435682 1.39301194
 1.39167288 1.39033965 1.38901225 1.38769066 1.3863749  1.38506495
 1.38376081 1.38246248 1.38116997 1.37988325 1.37860234 1.37732722
 1.3760579  1.37479438 1.37353664 1.37228469 1.37103852 1.36979812
 1.36856351 1.36733466 1.36611159 1.36489427 1.36368272 1.36247693
 1.36127688 1.36008259 1.35889404 1.35771123 1.35653415 1.35536281
 1.3541972  1.35303731 1.35188314 1.35073468 1.34959193 1.34845489
 1.34732355 1.3461979  1.34507794 1.34396367 1.34285508 1.34175217
 1.34065492 1.33956335 1.33847743 1.33739717 1.33632255 1.33525359
 1.33419026 1.33313256 1.33208049 1.33103405 1.32999322 1.328958
 1.32792839 1.32690437 1.32588595 1.32487312 1.32386587 1.32286419
 1.32186808 1.32087754 1.31989255 1.31891311 1.31793922 1.31697086
 1.31600804 1.31505074 1.31409896 1.31315269 1.31221192 1.31127665
 1.31034688 1.30942258 1.30850377 1.30759043 1.30668255 1.30578012
 1.30488315 1.30399162 1.30310552 1.30222486 1.30134961 1.30047978
 1.29961535 1.29875632 1.29790268 1.29705443 1.29621156 1.29537405
 1.2945419  1.29371511 1.29289366 1.29207755 1.29126677 1.29046131
 1.28966117 1.28886634 1.2880768  1.28729255 1.28651359 1.28573989
 1.28497147 1.2842083  1.28345039 1.28269771 1.28195027 1.28120805
 1.28047105 1.27973926 1.27901266 1.27829126 1.27757504 1.276864
 1.27615812 1.27545739 1.27476182 1.27407138 1.27338607 1.27270589
 1.27203082 1.27136085 1.27069598 1.2700362  1.26938149 1.26873185
 1.26808727 1.26744774 1.26681325 1.2661838  1.26555937 1.26493995
 1.26432554 1.26371612 1.26311169 1.26251223 1.26191774 1.26132821
 1.26074363 1.26016399 1.25958928 1.2590195  1.25845462 1.25789464
 1.25733956 1.25678936 1.25624403 1.25570356 1.25516795 1.25463718
 1.25411125 1.25359014 1.25307385 1.25256236 1.25205567 1.25155377
 1.25105664 1.25056427 1.25007667 1.2495938  1.24911568 1.24864228
 1.2481736  1.24770963 1.24725035 1.24679576 1.24634584 1.2459006
 1.24546001 1.24502406 1.24459276 1.24416607 1.24374401 1.24332655
 1.24291369 1.24250541 1.24210171 1.24170258 1.241308   1.24091796
 1.24053247 1.24015149 1.23977503 1.23940307 1.23903561 1.23867263
 1.23831413 1.23796009 1.2376105  1.23726535 1.23692464 1.23658834
 1.23625646 1.23592898 1.23560589 1.23528718 1.23497283 1.23466285
 1.23435722 1.23405593 1.23375896 1.23346631 1.23317797 1.23289392
 1.23261416 1.23233868 1.23206746 1.2318005  1.23153778 1.23127929
 1.23102503 1.23077498 1.23052913 1.23028747 1.23005    1.22981669
 1.22958755 1.22936255 1.2291417  1.22892497 1.22871236 1.22850386
 1.22829945 1.22809913 1.22790289 1.22771071 1.22752259 1.22733851
 1.22715846 1.22698244 1.22681043 1.22664242 1.22647841 1.22631837
 1.2261623  1.2260102  1.22586204 1.22571783 1.22557754 1.22544116
 1.2253087  1.22518013 1.22505545 1.22493464 1.2248177  1.22470462
 1.22459537 1.22448997 1.22438838 1.22429061 1.22419663 1.22410645
 1.22402006 1.22393743 1.22385856 1.22378344 1.22371206 1.22364441
 1.22358048 1.22352026 1.22346373 1.22341089 1.22336173 1.22331623
 1.22327439 1.2232362  1.22320164 1.22317071 1.22314338 1.22311967
 1.22309955 1.22308301 1.22307004 1.22306064 1.22305479 1.22305248
 1.2230537  1.22305844 1.2230667  1.22307846 1.2230937  1.22311243
 1.22313463 1.22316029 1.2231894  1.22322195 1.22325793 1.22329732
 1.22334013 1.22338634 1.22343593 1.22348891 1.22354525 1.22360495
 1.223668   1.22373439 1.22380411 1.22387714 1.22395349 1.22403313
 1.22411606 1.22420227 1.22429175 1.22438449 1.22448048 1.2245797
 1.22468216 1.22478783 1.22489671 1.22500879 1.22512407 1.22524252
 1.22536414 1.22548892 1.22561685 1.22574792 1.22588213 1.22601945
 1.22615989 1.22630342 1.22645005 1.22659977 1.22675255 1.2269084
 1.2270673  1.22722925 1.22739423 1.22756223 1.22773325 1.22790728
 1.2280843  1.22826431 1.2284473  1.22863325 1.22882216 1.22901403
 1.22920883 1.22940656 1.22960722 1.22981078 1.23001725 1.23022661
 1.23043886 1.23065397 1.23087196 1.2310928  1.23131649 1.23154302
 1.23177237 1.23200455 1.23223953 1.23247732 1.2327179  1.23296126
 1.2332074  1.2334563  1.23370795 1.23396236 1.2342195  1.23447938
 1.23474197 1.23500728 1.23527528 1.23554599 1.23581937 1.23609544
 1.23637417 1.23665556 1.2369396  1.23722628 1.23751559 1.23780753
 1.23810209 1.23839925 1.23869901 1.23900135 1.23930628 1.23961379
 1.23992385 1.24023647 1.24055164 1.24086935 1.24118959 1.24151235
 1.24183762 1.2421654  1.24249567 1.24282844 1.24316368 1.2435014
 1.24384157 1.24418421 1.24452929 1.24487681 1.24522676 1.24557914
 1.24593393 1.24629113 1.24665072 1.24701271 1.24737707 1.24774382
 1.24811293 1.2484844  1.24885821 1.24923438 1.24961287 1.2499937
 1.25037684 1.2507623  1.25115006 1.25154011 1.25193246 1.25232708
 1.25272398 1.25312314 1.25352456 1.25392824 1.25433415 1.2547423
 1.25515268 1.25556527 1.25598008 1.25639709 1.25681631 1.25723771
 1.25766129 1.25808705 1.25851498 1.25894507 1.25937732 1.25981171
 1.26024824 1.2606869  1.26112768 1.26157058 1.2620156  1.26246272
 1.26291193 1.26336323 1.26381661 1.26427207 1.2647296  1.26518919
 1.26565083 1.26611452 1.26658025 1.26704802 1.26751781 1.26798962
 1.26846344 1.26893927 1.2694171  1.26989693 1.27037874 1.27086252
 1.27134829 1.27183601 1.2723257  1.27281734 1.27331093 1.27380646
 1.27430392 1.2748033  1.27530461 1.27580783 1.27631296 1.27682
 1.27732892 1.27783974 1.27835244 1.27886701 1.27938346 1.27990176
 1.28042193 1.28094395 1.28146781 1.28199351 1.28252104 1.28305041
 1.28358159 1.28411459 1.28464939 1.285186   1.28572441 1.2862646
 1.28680659 1.28735035 1.28789588 1.28844319 1.28899225 1.28954307
 1.29009564 1.29064996 1.29120601 1.2917638  1.29232331 1.29288455
 1.2934475  1.29401217 1.29457854 1.29514661 1.29571637 1.29628782
 1.29686096 1.29743577 1.29801225 1.29859041 1.29917022 1.29975169
 1.30033481 1.30091958 1.30150599 1.30209403 1.3026837  1.303275
 1.30386792 1.30446245 1.3050586  1.30565634 1.30625569 1.30685663
 1.30745916 1.30806327 1.30866897 1.30927623 1.30988507 1.31049547
 1.31110744 1.31172095 1.31233602 1.31295263 1.31357079 1.31419048
 1.3148117  1.31543444 1.31605871 1.3166845  1.3173118  1.31794061
 1.31857092 1.31920272 1.31983603 1.32047082 1.3211071  1.32174486
 1.3223841  1.32302481 1.32366698 1.32431062 1.32495572 1.32560228
 1.32625028 1.32689973 1.32755062 1.32820295 1.32885672 1.32951191
 1.33016853 1.33082657 1.33148603 1.3321469  1.33280918 1.33347287
 1.33413795 1.33480444 1.33547231 1.33614158 1.33681223 1.33748426
 1.33815767 1.33883246 1.33950861 1.34018614 1.34086502 1.34154526
 1.34222686 1.34290981 1.34359411 1.34427975 1.34496673 1.34565505
 1.3463447  1.34703568 1.34772799 1.34842163 1.34911658 1.34981284
 1.35051042 1.35120931 1.35190951 1.35261101 1.3533138  1.3540179
 1.35472328 1.35542996 1.35613792 1.35684716 1.35755769 1.35826949
 1.35898256 1.35969691 1.36041252 1.3611294  1.36184753 1.36256693
 1.36328758 1.36400948 1.36473264 1.36545703 1.36618268 1.36690956
 1.36763768 1.36836704 1.36909762 1.36982944 1.37056248 1.37129675
 1.37203224 1.37276895 1.37350687 1.37424601 1.37498636 1.37572791
 1.37647067 1.37721463 1.3779598  1.37870616 1.37945371 1.38020246
 1.3809524  1.38170353 1.38245584 1.38320934 1.38396402 1.38471987
 1.38547691 1.38623511 1.38699449 1.38775504 1.38851675 1.38927964
 1.39004368 1.39080888 1.39157525 1.39234277 1.39311144 1.39388127
 1.39465225 1.39542437 1.39619764 1.39697206 1.39774762 1.39852432
 1.39930216 1.40008114 1.40086125 1.4016425 ]
t = [1.09635420e+09 1.09635429e+09 1.09635437e+09 1.09635446e+09
 1.09635455e+09 1.09635463e+09 1.09635472e+09 1.09635481e+09
 1.09635489e+09 1.09635498e+09 1.09635507e+09 1.09635515e+09
 1.09635524e+09 1.09635532e+09 1.09635541e+09 1.09635550e+09
 1.09635558e+09 1.09635567e+09 1.09635576e+09 1.09635584e+09
 1.09635593e+09 1.09635602e+09 1.09635610e+09 1.09635619e+09
 1.09635628e+09 1.09635636e+09 1.09635645e+09 1.09635654e+09
 1.09635662e+09 1.09635671e+09 1.09635679e+09 1.09635688e+09
 1.09635697e+09 1.09635705e+09 1.09635714e+09 1.09635723e+09
 1.09635731e+09 1.09635740e+09 1.09635749e+09 1.09635757e+09
 1.09635766e+09 1.09635775e+09 1.09635783e+09 1.09635792e+09
 1.09635801e+09 1.09635809e+09 1.09635818e+09 1.09635827e+09
 1.09635835e+09 1.09635844e+09 1.09635852e+09 1.09635861e+09
 1.09635870e+09 1.09635878e+09 1.09635887e+09 1.09635896e+09
 1.09635904e+09 1.09635913e+09 1.09635922e+09 1.09635930e+09
 1.09635939e+09 1.09635948e+09 1.09635956e+09 1.09635965e+09
 1.09635974e+09 1.09635982e+09 1.09635991e+09 1.09635999e+09
 1.09636008e+09 1.09636017e+09 1.09636025e+09 1.09636034e+09
 1.09636043e+09 1.09636051e+09 1.09636060e+09 1.09636069e+09
 1.09636077e+09 1.09636086e+09 1.09636095e+09 1.09636103e+09
 1.09636112e+09 1.09636121e+09 1.09636129e+09 1.09636138e+09
 1.09636147e+09 1.09636155e+09 1.09636164e+09 1.09636172e+09
 1.09636181e+09 1.09636190e+09 1.09636198e+09 1.09636207e+09
 1.09636216e+09 1.09636224e+09 1.09636233e+09 1.09636242e+09
 1.09636250e+09 1.09636259e+09 1.09636268e+09 1.09636276e+09
 1.09636285e+09 1.09636294e+09 1.09636302e+09 1.09636311e+09
 1.09636319e+09 1.09636328e+09 1.09636337e+09 1.09636345e+09
 1.09636354e+09 1.09636363e+09 1.09636371e+09 1.09636380e+09
 1.09636389e+09 1.09636397e+09 1.09636406e+09 1.09636415e+09
 1.09636423e+09 1.09636432e+09 1.09636441e+09 1.09636449e+09
 1.09636458e+09 1.09636467e+09 1.09636475e+09 1.09636484e+09
 1.09636492e+09 1.09636501e+09 1.09636510e+09 1.09636518e+09
 1.09636527e+09 1.09636536e+09 1.09636544e+09 1.09636553e+09
 1.09636562e+09 1.09636570e+09 1.09636579e+09 1.09636588e+09
 1.09636596e+09 1.09636605e+09 1.09636614e+09 1.09636622e+09
 1.09636631e+09 1.09636639e+09 1.09636648e+09 1.09636657e+09
 1.09636665e+09 1.09636674e+09 1.09636683e+09 1.09636691e+09
 1.09636700e+09 1.09636709e+09 1.09636717e+09 1.09636726e+09
 1.09636735e+09 1.09636743e+09 1.09636752e+09 1.09636761e+09
 1.09636769e+09 1.09636778e+09 1.09636787e+09 1.09636795e+09
 1.09636804e+09 1.09636812e+09 1.09636821e+09 1.09636830e+09
 1.09636838e+09 1.09636847e+09 1.09636856e+09 1.09636864e+09
 1.09636873e+09 1.09636882e+09 1.09636890e+09 1.09636899e+09
 1.09636908e+09 1.09636916e+09 1.09636925e+09 1.09636934e+09
 1.09636942e+09 1.09636951e+09 1.09636959e+09 1.09636968e+09
 1.09636977e+09 1.09636985e+09 1.09636994e+09 1.09637003e+09
 1.09637011e+09 1.09637020e+09 1.09637029e+09 1.09637037e+09
 1.09637046e+09 1.09637055e+09 1.09637063e+09 1.09637072e+09
 1.09637081e+09 1.09637089e+09 1.09637098e+09 1.09637107e+09
 1.09637115e+09 1.09637124e+09 1.09637132e+09 1.09637141e+09
 1.09637150e+09 1.09637158e+09 1.09637167e+09 1.09637176e+09
 1.09637184e+09 1.09637193e+09 1.09637202e+09 1.09637210e+09
 1.09637219e+09 1.09637228e+09 1.09637236e+09 1.09637245e+09
 1.09637254e+09 1.09637262e+09 1.09637271e+09 1.09637279e+09
 1.09637288e+09 1.09637297e+09 1.09637305e+09 1.09637314e+09
 1.09637323e+09 1.09637331e+09 1.09637340e+09 1.09637349e+09
 1.09637357e+09 1.09637366e+09 1.09637375e+09 1.09637383e+09
 1.09637392e+09 1.09637401e+09 1.09637409e+09 1.09637418e+09
 1.09637427e+09 1.09637435e+09 1.09637444e+09 1.09637452e+09
 1.09637461e+09 1.09637470e+09 1.09637478e+09 1.09637487e+09
 1.09637496e+09 1.09637504e+09 1.09637513e+09 1.09637522e+09
 1.09637530e+09 1.09637539e+09 1.09637548e+09 1.09637556e+09
 1.09637565e+09 1.09637574e+09 1.09637582e+09 1.09637591e+09
 1.09637599e+09 1.09637608e+09 1.09637617e+09 1.09637625e+09
 1.09637634e+09 1.09637643e+09 1.09637651e+09 1.09637660e+09
 1.09637669e+09 1.09637677e+09 1.09637686e+09 1.09637695e+09
 1.09637703e+09 1.09637712e+09 1.09637721e+09 1.09637729e+09
 1.09637738e+09 1.09637747e+09 1.09637755e+09 1.09637764e+09
 1.09637772e+09 1.09637781e+09 1.09637790e+09 1.09637798e+09
 1.09637807e+09 1.09637816e+09 1.09637824e+09 1.09637833e+09
 1.09637842e+09 1.09637850e+09 1.09637859e+09 1.09637868e+09
 1.09637876e+09 1.09637885e+09 1.09637894e+09 1.09637902e+09
 1.09637911e+09 1.09637919e+09 1.09637928e+09 1.09637937e+09
 1.09637945e+09 1.09637954e+09 1.09637963e+09 1.09637971e+09
 1.09637980e+09 1.09637989e+09 1.09637997e+09 1.09638006e+09
 1.09638015e+09 1.09638023e+09 1.09638032e+09 1.09638041e+09
 1.09638049e+09 1.09638058e+09 1.09638067e+09 1.09638075e+09
 1.09638084e+09 1.09638092e+09 1.09638101e+09 1.09638110e+09
 1.09638118e+09 1.09638127e+09 1.09638136e+09 1.09638144e+09
 1.09638153e+09 1.09638162e+09 1.09638170e+09 1.09638179e+09
 1.09638188e+09 1.09638196e+09 1.09638205e+09 1.09638214e+09
 1.09638222e+09 1.09638231e+09 1.09638239e+09 1.09638248e+09
 1.09638257e+09 1.09638265e+09 1.09638274e+09 1.09638283e+09
 1.09638291e+09 1.09638300e+09 1.09638309e+09 1.09638317e+09
 1.09638326e+09 1.09638335e+09 1.09638343e+09 1.09638352e+09
 1.09638361e+09 1.09638369e+09 1.09638378e+09 1.09638387e+09
 1.09638395e+09 1.09638404e+09 1.09638412e+09 1.09638421e+09
 1.09638430e+09 1.09638438e+09 1.09638447e+09 1.09638456e+09
 1.09638464e+09 1.09638473e+09 1.09638482e+09 1.09638490e+09
 1.09638499e+09 1.09638508e+09 1.09638516e+09 1.09638525e+09
 1.09638534e+09 1.09638542e+09 1.09638551e+09 1.09638559e+09
 1.09638568e+09 1.09638577e+09 1.09638585e+09 1.09638594e+09
 1.09638603e+09 1.09638611e+09 1.09638620e+09 1.09638629e+09
 1.09638637e+09 1.09638646e+09 1.09638655e+09 1.09638663e+09
 1.09638672e+09 1.09638681e+09 1.09638689e+09 1.09638698e+09
 1.09638707e+09 1.09638715e+09 1.09638724e+09 1.09638732e+09
 1.09638741e+09 1.09638750e+09 1.09638758e+09 1.09638767e+09
 1.09638776e+09 1.09638784e+09 1.09638793e+09 1.09638802e+09
 1.09638810e+09 1.09638819e+09 1.09638828e+09 1.09638836e+09
 1.09638845e+09 1.09638854e+09 1.09638862e+09 1.09638871e+09
 1.09638879e+09 1.09638888e+09 1.09638897e+09 1.09638905e+09
 1.09638914e+09 1.09638923e+09 1.09638931e+09 1.09638940e+09
 1.09638949e+09 1.09638957e+09 1.09638966e+09 1.09638975e+09
 1.09638983e+09 1.09638992e+09 1.09639001e+09 1.09639009e+09
 1.09639018e+09 1.09639027e+09 1.09639035e+09 1.09639044e+09
 1.09639052e+09 1.09639061e+09 1.09639070e+09 1.09639078e+09
 1.09639087e+09 1.09639096e+09 1.09639104e+09 1.09639113e+09
 1.09639122e+09 1.09639130e+09 1.09639139e+09 1.09639148e+09
 1.09639156e+09 1.09639165e+09 1.09639174e+09 1.09639182e+09
 1.09639191e+09 1.09639199e+09 1.09639208e+09 1.09639217e+09
 1.09639225e+09 1.09639234e+09 1.09639243e+09 1.09639251e+09
 1.09639260e+09 1.09639269e+09 1.09639277e+09 1.09639286e+09
 1.09639295e+09 1.09639303e+09 1.09639312e+09 1.09639321e+09
 1.09639329e+09 1.09639338e+09 1.09639347e+09 1.09639355e+09
 1.09639364e+09 1.09639372e+09 1.09639381e+09 1.09639390e+09
 1.09639398e+09 1.09639407e+09 1.09639416e+09 1.09639424e+09
 1.09639433e+09 1.09639442e+09 1.09639450e+09 1.09639459e+09
 1.09639468e+09 1.09639476e+09 1.09639485e+09 1.09639494e+09
 1.09639502e+09 1.09639511e+09 1.09639519e+09 1.09639528e+09
 1.09639537e+09 1.09639545e+09 1.09639554e+09 1.09639563e+09
 1.09639571e+09 1.09639580e+09 1.09639589e+09 1.09639597e+09
 1.09639606e+09 1.09639615e+09 1.09639623e+09 1.09639632e+09
 1.09639641e+09 1.09639649e+09 1.09639658e+09 1.09639667e+09
 1.09639675e+09 1.09639684e+09 1.09639692e+09 1.09639701e+09
 1.09639710e+09 1.09639718e+09 1.09639727e+09 1.09639736e+09
 1.09639744e+09 1.09639753e+09 1.09639762e+09 1.09639770e+09
 1.09639779e+09 1.09639788e+09 1.09639796e+09 1.09639805e+09
 1.09639814e+09 1.09639822e+09 1.09639831e+09 1.09639839e+09
 1.09639848e+09 1.09639857e+09 1.09639865e+09 1.09639874e+09
 1.09639883e+09 1.09639891e+09 1.09639900e+09 1.09639909e+09
 1.09639917e+09 1.09639926e+09 1.09639935e+09 1.09639943e+09
 1.09639952e+09 1.09639961e+09 1.09639969e+09 1.09639978e+09
 1.09639987e+09 1.09639995e+09 1.09640004e+09 1.09640012e+09
 1.09640021e+09 1.09640030e+09 1.09640038e+09 1.09640047e+09
 1.09640056e+09 1.09640064e+09 1.09640073e+09 1.09640082e+09
 1.09640090e+09 1.09640099e+09 1.09640108e+09 1.09640116e+09
 1.09640125e+09 1.09640134e+09 1.09640142e+09 1.09640151e+09
 1.09640159e+09 1.09640168e+09 1.09640177e+09 1.09640185e+09
 1.09640194e+09 1.09640203e+09 1.09640211e+09 1.09640220e+09
 1.09640229e+09 1.09640237e+09 1.09640246e+09 1.09640255e+09
 1.09640263e+09 1.09640272e+09 1.09640281e+09 1.09640289e+09
