name =JUICE_ROI_GAN_4_7_02
flyby = ['2034 JUL 11 19:50:31', '2034 JUL 12 19:50:31']
Observation TW = <SpiceCell dtype = 1, length = 0, size = 3200, card = 12, is_set = 1, adjust = 0, init = 1, base = 94275998147472, data = 94275998147520>
Res(t) = [2.73411348 2.73088325 2.72765765 2.72443668 2.72122036 2.71800868
 2.71480167 2.71159933 2.70840167 2.7052087  2.70202043 2.69883687
 2.69565803 2.69248392 2.68931455 2.68614993 2.68299007 2.67983498
 2.67668466 2.67353914 2.67039841 2.66726249 2.66413138 2.6610051
 2.65788366 2.65476706 2.65165532 2.64854844 2.64544644 2.64234932
 2.63925709 2.63616977 2.63308735 2.63000986 2.6269373  2.62386968
 2.62080701 2.6177493  2.61469656 2.6116488  2.60860602 2.60556824
 2.60253547 2.59950771 2.59648497 2.59346727 2.59045462 2.58744701
 2.58444447 2.581447   2.57845461 2.5754673  2.5724851  2.569508
 2.56653602 2.56356917 2.56060745 2.55765087 2.55469945 2.55175318
 2.54881209 2.54587618 2.54294546 2.54001993 2.53709961 2.53418451
 2.53127463 2.52836998 2.52547057 2.52257642 2.51968752 2.51680389
 2.51392554 2.51105247 2.5081847  2.50532223 2.50246507 2.49961323
 2.49676672 2.49392555 2.49108972 2.48825925 2.48543413 2.48261439
 2.47980003 2.47699105 2.47418747 2.47138929 2.46859653 2.46580919
 2.46302727 2.46025079 2.45747976 2.45471418 2.45195406 2.44919941
 2.44645024 2.44370655 2.44096836 2.43823566 2.43550848 2.43278681
 2.43007067 2.42736006 2.42465499 2.42195547 2.4192615  2.4165731
 2.41389027 2.41121302 2.40854135 2.40587528 2.40321481 2.40055994
 2.3979107  2.39526708 2.39262908 2.38999673 2.38737002 2.38474897
 2.38213358 2.37952385 2.3769198  2.37432143 2.37172874 2.36914176
 2.36656047 2.3639849  2.36141504 2.3588509  2.3562925  2.35373983
 2.35119291 2.34865173 2.34611632 2.34358667 2.34106278 2.33854468
 2.33603236 2.33352583 2.33102509 2.32853016 2.32604104 2.32355773
 2.32108025 2.31860859 2.31614277 2.31368279 2.31122865 2.30878037
 2.30633795 2.30390139 2.3014707  2.29904589 2.29662696 2.29421392
 2.29180677 2.28940552 2.28701018 2.28462075 2.28223724 2.27985965
 2.27748798 2.27512225 2.27276246 2.27040861 2.26806071 2.26571877
 2.26338278 2.26105276 2.25872871 2.25641064 2.25409854 2.25179243
 2.24949232 2.24719819 2.24491007 2.24262795 2.24035184 2.23808174
 2.23581767 2.23355962 2.23130759 2.2290616  2.22682164 2.22458773
 2.22235986 2.22013805 2.21792228 2.21571258 2.21350894 2.21131137
 2.20911986 2.20693443 2.20475509 2.20258182 2.20041464 2.19825355
 2.19609856 2.19394966 2.19180687 2.18967018 2.1875396  2.18541514
 2.18329679 2.18118456 2.17907845 2.17697847 2.17488462 2.1727969
 2.17071532 2.16863987 2.16657057 2.16450741 2.16245041 2.16039955
 2.15835484 2.1563163  2.15428391 2.15225768 2.15023762 2.14822373
 2.146216   2.14421445 2.14221908 2.14022988 2.13824686 2.13627002
 2.13429936 2.1323349  2.13037661 2.12842452 2.12647863 2.12453892
 2.12260542 2.12067811 2.118757   2.11684209 2.11493339 2.11303089
 2.11113459 2.10924451 2.10736063 2.10548297 2.10361151 2.10174628
 2.09988725 2.09803444 2.09618785 2.09434748 2.09251332 2.09068539
 2.08886368 2.08704819 2.08523892 2.08343588 2.08163906 2.07984846
 2.07806409 2.07628595 2.07451403 2.07274834 2.07098888 2.06923565
 2.06748864 2.06574786 2.06401331 2.06228499 2.0605629  2.05884704
 2.0571374  2.05543399 2.05373681 2.05204586 2.05036114 2.04868265
 2.04701038 2.04534433 2.04368452 2.04203093 2.04038356 2.03874242
 2.0371075  2.03547881 2.03385634 2.03224009 2.03063005 2.02902624
 2.02742865 2.02583727 2.02425211 2.02267317 2.02110043 2.01953391
 2.0179736  2.0164195  2.01487161 2.01332993 2.01179445 2.01026517
 2.00874209 2.00722522 2.00571454 2.00421006 2.00271177 2.00121968
 1.99973377 1.99825406 1.99678053 1.99531318 1.99385202 1.99239703
 1.99094823 1.98950559 1.98806913 1.98663884 1.98521472 1.98379677
 1.98238497 1.98097933 1.97957986 1.97818653 1.97679936 1.97541833
 1.97404345 1.97267472 1.97131212 1.96995566 1.96860533 1.96726113
 1.96592306 1.96459111 1.96326528 1.96194557 1.96063197 1.95932448
 1.9580231  1.95672782 1.95543863 1.95415555 1.95287855 1.95160764
 1.95034282 1.94908407 1.94783141 1.94658481 1.94534428 1.94410981
 1.94288141 1.94165906 1.94044276 1.9392325  1.93802829 1.93683012
 1.93563798 1.93445187 1.93327179 1.93209772 1.93092967 1.92976763
 1.9286116  1.92746157 1.92631753 1.92517949 1.92404743 1.92292136
 1.92180126 1.92068713 1.91957897 1.91847677 1.91738053 1.91629023
 1.91520589 1.91412748 1.91305501 1.91198847 1.91092785 1.90987315
 1.90882437 1.90778149 1.90674451 1.90571343 1.90468824 1.90366894
 1.90265551 1.90164796 1.90064627 1.89965045 1.89866048 1.89767636
 1.89669809 1.89572565 1.89475904 1.89379826 1.89284329 1.89189414
 1.89095079 1.89001325 1.88908149 1.88815553 1.88723534 1.88632093
 1.88541228 1.8845094  1.88361227 1.88272089 1.88183524 1.88095534
 1.88008116 1.8792127  1.87834995 1.87749291 1.87664157 1.87579592
 1.87495596 1.87412168 1.87329307 1.87247012 1.87165283 1.87084119
 1.8700352  1.86923484 1.8684401  1.86765099 1.8668675  1.86608961
 1.86531731 1.86455061 1.8637895  1.86303396 1.86228399 1.86153958
 1.86080072 1.86006741 1.85933964 1.85861739 1.85790067 1.85718947
 1.85648377 1.85578357 1.85508887 1.85439964 1.85371589 1.85303761
 1.85236479 1.85169742 1.85103549 1.850379   1.84972794 1.84908229
 1.84844205 1.84780722 1.84717778 1.84655373 1.84593505 1.84532175
 1.8447138  1.84411121 1.84351396 1.84292204 1.84233545 1.84175418
 1.84117823 1.84060757 1.8400422  1.83948212 1.83892732 1.83837778
 1.8378335  1.83729447 1.83676068 1.83623212 1.83570879 1.83519067
 1.83467775 1.83417003 1.8336675  1.83317015 1.83267797 1.83219095
 1.83170908 1.83123235 1.83076076 1.83029429 1.82983294 1.82937669
 1.82892555 1.82847949 1.82803851 1.8276026  1.82717175 1.82674595
 1.8263252  1.82590948 1.82549878 1.8250931  1.82469242 1.82429674
 1.82390605 1.82352033 1.82313958 1.82276379 1.82239295 1.82202705
 1.82166608 1.82131002 1.82095889 1.82061265 1.8202713  1.81993484
 1.81960325 1.81927652 1.81895465 1.81863762 1.81832543 1.81801806
 1.81771551 1.81741776 1.81712481 1.81683665 1.81655326 1.81627464
 1.81600078 1.81573167 1.81546729 1.81520764 1.81495271 1.81470249
 1.81445697 1.81421613 1.81397998 1.81374849 1.81352166 1.81329949
 1.81308195 1.81286904 1.81266075 1.81245708 1.812258   1.81206351
 1.8118736  1.81168827 1.81150749 1.81133127 1.81115958 1.81099242
 1.81082979 1.81067167 1.81051804 1.81036891 1.81022426 1.81008408
 1.80994835 1.80981708 1.80969025 1.80956785 1.80944987 1.8093363
 1.80922713 1.80912236 1.80902196 1.80892593 1.80883426 1.80874694
 1.80866396 1.80858531 1.80851098 1.80844096 1.80837524 1.8083138
 1.80825665 1.80820377 1.80815514 1.80811076 1.80807062 1.80803472
 1.80800302 1.80797554 1.80795226 1.80793316 1.80791824 1.80790749
 1.8079009  1.80789845 1.80790014 1.80790596 1.80791589 1.80792994
 1.80794807 1.8079703  1.8079966  1.80802697 1.80806139 1.80809986
 1.80814237 1.8081889  1.80823945 1.808294   1.80835255 1.80841508
 1.80848159 1.80855207 1.8086265  1.80870487 1.80878718 1.80887341
 1.80896356 1.80905761 1.80915555 1.80925738 1.80936308 1.80947265
 1.80958607 1.80970334 1.80982443 1.80994936 1.81007809 1.81021063
 1.81034696 1.81048708 1.81063096 1.81077862 1.81093002 1.81108517
 1.81124405 1.81140665 1.81157297 1.81174299 1.8119167  1.8120941
 1.81227517 1.8124599  1.81264828 1.81284031 1.81303597 1.81323526
 1.81343816 1.81364466 1.81385475 1.81406843 1.81428568 1.8145065
 1.81473086 1.81495878 1.81519022 1.81542519 1.81566368 1.81590567
 1.81615115 1.81640012 1.81665256 1.81690847 1.81716783 1.81743064
 1.81769689 1.81796656 1.81823964 1.81851613 1.81879602 1.8190793
 1.81936595 1.81965597 1.81994935 1.82024608 1.82054614 1.82084954
 1.82115625 1.82146627 1.82177959 1.8220962  1.82241609 1.82273926
 1.82306568 1.82339536 1.82372828 1.82406443 1.8244038  1.82474639
 1.82509218 1.82544117 1.82579334 1.82614868 1.8265072  1.82686887
 1.82723368 1.82760164 1.82797272 1.82834692 1.82872424 1.82910465
 1.82948815 1.82987474 1.83026439 1.83065711 1.83105289 1.8314517
 1.83185356 1.83225844 1.83266633 1.83307724 1.83349114 1.83390803
 1.8343279  1.83475074 1.83517654 1.8356053  1.836037   1.83647163
 1.83690919 1.83734966 1.83779304 1.83823932 1.83868849 1.83914054
 1.83959546 1.84005324 1.84051387 1.84097735 1.84144366 1.8419128
 1.84238476 1.84285952 1.84333709 1.84381744 1.84430058 1.84478649
 1.84527517 1.8457666  1.84626077 1.84675769 1.84725733 1.8477597
 1.84826478 1.84877256 1.84928304 1.8497962  1.85031204 1.85083055
 1.85135171 1.85187553 1.852402   1.8529311  1.85346282 1.85399716
 1.85453411 1.85507366 1.85561581 1.85616054 1.85670784 1.85725771
 1.85781014 1.85836512 1.85892264 1.85948269 1.86004527 1.86061037
 1.86117798 1.86174809 1.86232069 1.86289577 1.86347333 1.86405336
 1.86463585 1.86522079 1.86580817 1.86639799 1.86699023 1.8675849
 1.86818197 1.86878146 1.86938333 1.86998759 1.87059424 1.87120325
 1.87181463 1.87242836 1.87304444 1.87366286 1.87428362 1.87490669
 1.87553209 1.87615979 1.87678979 1.87742209 1.87805668 1.87869354
 1.87933267 1.87997406 1.88061771 1.88126361 1.88191174 1.88256211
 1.88321471 1.88386952 1.88452654 1.88518576 1.88584718 1.88651078
 1.88717657 1.88784452 1.88851464 1.88918692 1.88986135 1.89053793
 1.89121664 1.89189747 1.89258043 1.8932655  1.89395268 1.89464196
 1.89533334 1.89602679 1.89672233 1.89741993 1.8981196  1.89882133
 1.89952511 1.90023093 1.90093878 1.90164866 1.90236057 1.90307449
 1.90379042 1.90450835 1.90522827 1.90595018 1.90667407 1.90739994
 1.90812777 1.90885756 1.90958931 1.910323   1.91105863 1.9117962
 1.91253569 1.9132771  1.91402043 1.91476566 1.91551279 1.91626181
 1.91701273 1.91776552 1.91852018 1.91927672 1.92003511 1.92079536
 1.92155746 1.9223214  1.92308717 1.92385478 1.9246242  1.92539545
 1.9261685  1.92694336 1.92772001 1.92849846 1.92927869 1.9300607
 1.93084448 1.93163003 1.93241734 1.9332064  1.93399722 1.93478977
 1.93558406 1.93638008 1.93717783 1.9379773  1.93877847 1.93958136
 1.94038594 1.94119222 1.94200019 1.94280984 1.94362117 1.94443417
 1.94524883 1.94606516 1.94688314 1.94770277 1.94852404 1.94934694
 1.95017148 1.95099765 1.95182544 1.95265484 1.95348585 1.95431846
 1.95515267 1.95598848 1.95682587 1.95766484 1.95850539 1.95934751
 1.9601912  1.96103644 1.96188325 1.9627316  1.96358149 1.96443293
 1.96528589 1.96614039 1.96699641 1.96785395 1.968713   1.96957356
 1.97043562 1.97129918 1.97216424 1.97303078 1.9738988  1.9747683
 1.97563927 1.97651171 1.97738562 1.97826098 1.97913779 1.98001606
 1.98089576 1.98177691 1.98265948 1.98354349 1.98442892 1.98531577
 1.98620404 1.98709371 1.98798479 1.98887727 1.98977115 1.99066641
 1.99156307 1.9924611  1.99336052 1.9942613  1.99516346 1.99606698
 1.99697186 1.9978781  1.99878568 1.99969461 2.00060489 2.0015165
 2.00242945 2.00334372 2.00425932 2.00517624 2.00609448 2.00701403
 2.00793488 2.00885704 2.0097805  2.01070526 2.0116313  2.01255864
 2.01348726 2.01441715 2.01534832 2.01628077 2.01721448 2.01814945
 2.01908568 2.02002317 2.02096191 2.0219019  2.02284313 2.0237856
 2.02472931 2.02567425 2.02662042 2.02756781 2.02851643 2.02946626
 2.03041731 2.03136956 2.03232303 2.03327769 2.03423356 2.03519062
 2.03614887 2.03710831 2.03806894 2.03903075 2.03999373 2.0409579
 2.04192323 2.04288973 2.0438574  2.04482623 2.04579621 2.04676735
 2.04773964 2.04871308 2.04968767 2.05066339 2.05164026 2.05261826
 2.05359739 2.05457765 2.05555904 2.05654155]
t = [1.08953230e+09 1.08953239e+09 1.08953247e+09 1.08953256e+09
 1.08953265e+09 1.08953273e+09 1.08953282e+09 1.08953291e+09
 1.08953299e+09 1.08953308e+09 1.08953317e+09 1.08953325e+09
 1.08953334e+09 1.08953342e+09 1.08953351e+09 1.08953360e+09
 1.08953368e+09 1.08953377e+09 1.08953386e+09 1.08953394e+09
 1.08953403e+09 1.08953412e+09 1.08953420e+09 1.08953429e+09
 1.08953438e+09 1.08953446e+09 1.08953455e+09 1.08953464e+09
 1.08953472e+09 1.08953481e+09 1.08953489e+09 1.08953498e+09
 1.08953507e+09 1.08953515e+09 1.08953524e+09 1.08953533e+09
 1.08953541e+09 1.08953550e+09 1.08953559e+09 1.08953567e+09
 1.08953576e+09 1.08953585e+09 1.08953593e+09 1.08953602e+09
 1.08953611e+09 1.08953619e+09 1.08953628e+09 1.08953637e+09
 1.08953645e+09 1.08953654e+09 1.08953662e+09 1.08953671e+09
 1.08953680e+09 1.08953688e+09 1.08953697e+09 1.08953706e+09
 1.08953714e+09 1.08953723e+09 1.08953732e+09 1.08953740e+09
 1.08953749e+09 1.08953758e+09 1.08953766e+09 1.08953775e+09
 1.08953784e+09 1.08953792e+09 1.08953801e+09 1.08953809e+09
 1.08953818e+09 1.08953827e+09 1.08953835e+09 1.08953844e+09
 1.08953853e+09 1.08953861e+09 1.08953870e+09 1.08953879e+09
 1.08953887e+09 1.08953896e+09 1.08953905e+09 1.08953913e+09
 1.08953922e+09 1.08953931e+09 1.08953939e+09 1.08953948e+09
 1.08953957e+09 1.08953965e+09 1.08953974e+09 1.08953982e+09
 1.08953991e+09 1.08954000e+09 1.08954008e+09 1.08954017e+09
 1.08954026e+09 1.08954034e+09 1.08954043e+09 1.08954052e+09
 1.08954060e+09 1.08954069e+09 1.08954078e+09 1.08954086e+09
 1.08954095e+09 1.08954104e+09 1.08954112e+09 1.08954121e+09
 1.08954129e+09 1.08954138e+09 1.08954147e+09 1.08954155e+09
 1.08954164e+09 1.08954173e+09 1.08954181e+09 1.08954190e+09
 1.08954199e+09 1.08954207e+09 1.08954216e+09 1.08954225e+09
 1.08954233e+09 1.08954242e+09 1.08954251e+09 1.08954259e+09
 1.08954268e+09 1.08954277e+09 1.08954285e+09 1.08954294e+09
 1.08954302e+09 1.08954311e+09 1.08954320e+09 1.08954328e+09
 1.08954337e+09 1.08954346e+09 1.08954354e+09 1.08954363e+09
 1.08954372e+09 1.08954380e+09 1.08954389e+09 1.08954398e+09
 1.08954406e+09 1.08954415e+09 1.08954424e+09 1.08954432e+09
 1.08954441e+09 1.08954449e+09 1.08954458e+09 1.08954467e+09
 1.08954475e+09 1.08954484e+09 1.08954493e+09 1.08954501e+09
 1.08954510e+09 1.08954519e+09 1.08954527e+09 1.08954536e+09
 1.08954545e+09 1.08954553e+09 1.08954562e+09 1.08954571e+09
 1.08954579e+09 1.08954588e+09 1.08954597e+09 1.08954605e+09
 1.08954614e+09 1.08954622e+09 1.08954631e+09 1.08954640e+09
 1.08954648e+09 1.08954657e+09 1.08954666e+09 1.08954674e+09
 1.08954683e+09 1.08954692e+09 1.08954700e+09 1.08954709e+09
 1.08954718e+09 1.08954726e+09 1.08954735e+09 1.08954744e+09
 1.08954752e+09 1.08954761e+09 1.08954769e+09 1.08954778e+09
 1.08954787e+09 1.08954795e+09 1.08954804e+09 1.08954813e+09
 1.08954821e+09 1.08954830e+09 1.08954839e+09 1.08954847e+09
 1.08954856e+09 1.08954865e+09 1.08954873e+09 1.08954882e+09
 1.08954891e+09 1.08954899e+09 1.08954908e+09 1.08954917e+09
 1.08954925e+09 1.08954934e+09 1.08954942e+09 1.08954951e+09
 1.08954960e+09 1.08954968e+09 1.08954977e+09 1.08954986e+09
 1.08954994e+09 1.08955003e+09 1.08955012e+09 1.08955020e+09
 1.08955029e+09 1.08955038e+09 1.08955046e+09 1.08955055e+09
 1.08955064e+09 1.08955072e+09 1.08955081e+09 1.08955089e+09
 1.08955098e+09 1.08955107e+09 1.08955115e+09 1.08955124e+09
 1.08955133e+09 1.08955141e+09 1.08955150e+09 1.08955159e+09
 1.08955167e+09 1.08955176e+09 1.08955185e+09 1.08955193e+09
 1.08955202e+09 1.08955211e+09 1.08955219e+09 1.08955228e+09
 1.08955237e+09 1.08955245e+09 1.08955254e+09 1.08955262e+09
 1.08955271e+09 1.08955280e+09 1.08955288e+09 1.08955297e+09
 1.08955306e+09 1.08955314e+09 1.08955323e+09 1.08955332e+09
 1.08955340e+09 1.08955349e+09 1.08955358e+09 1.08955366e+09
 1.08955375e+09 1.08955384e+09 1.08955392e+09 1.08955401e+09
 1.08955409e+09 1.08955418e+09 1.08955427e+09 1.08955435e+09
 1.08955444e+09 1.08955453e+09 1.08955461e+09 1.08955470e+09
 1.08955479e+09 1.08955487e+09 1.08955496e+09 1.08955505e+09
 1.08955513e+09 1.08955522e+09 1.08955531e+09 1.08955539e+09
 1.08955548e+09 1.08955557e+09 1.08955565e+09 1.08955574e+09
 1.08955582e+09 1.08955591e+09 1.08955600e+09 1.08955608e+09
 1.08955617e+09 1.08955626e+09 1.08955634e+09 1.08955643e+09
 1.08955652e+09 1.08955660e+09 1.08955669e+09 1.08955678e+09
 1.08955686e+09 1.08955695e+09 1.08955704e+09 1.08955712e+09
 1.08955721e+09 1.08955729e+09 1.08955738e+09 1.08955747e+09
 1.08955755e+09 1.08955764e+09 1.08955773e+09 1.08955781e+09
 1.08955790e+09 1.08955799e+09 1.08955807e+09 1.08955816e+09
 1.08955825e+09 1.08955833e+09 1.08955842e+09 1.08955851e+09
 1.08955859e+09 1.08955868e+09 1.08955877e+09 1.08955885e+09
 1.08955894e+09 1.08955902e+09 1.08955911e+09 1.08955920e+09
 1.08955928e+09 1.08955937e+09 1.08955946e+09 1.08955954e+09
 1.08955963e+09 1.08955972e+09 1.08955980e+09 1.08955989e+09
 1.08955998e+09 1.08956006e+09 1.08956015e+09 1.08956024e+09
 1.08956032e+09 1.08956041e+09 1.08956049e+09 1.08956058e+09
 1.08956067e+09 1.08956075e+09 1.08956084e+09 1.08956093e+09
 1.08956101e+09 1.08956110e+09 1.08956119e+09 1.08956127e+09
 1.08956136e+09 1.08956145e+09 1.08956153e+09 1.08956162e+09
 1.08956171e+09 1.08956179e+09 1.08956188e+09 1.08956197e+09
 1.08956205e+09 1.08956214e+09 1.08956222e+09 1.08956231e+09
 1.08956240e+09 1.08956248e+09 1.08956257e+09 1.08956266e+09
 1.08956274e+09 1.08956283e+09 1.08956292e+09 1.08956300e+09
 1.08956309e+09 1.08956318e+09 1.08956326e+09 1.08956335e+09
 1.08956344e+09 1.08956352e+09 1.08956361e+09 1.08956369e+09
 1.08956378e+09 1.08956387e+09 1.08956395e+09 1.08956404e+09
 1.08956413e+09 1.08956421e+09 1.08956430e+09 1.08956439e+09
 1.08956447e+09 1.08956456e+09 1.08956465e+09 1.08956473e+09
 1.08956482e+09 1.08956491e+09 1.08956499e+09 1.08956508e+09
 1.08956517e+09 1.08956525e+09 1.08956534e+09 1.08956542e+09
 1.08956551e+09 1.08956560e+09 1.08956568e+09 1.08956577e+09
 1.08956586e+09 1.08956594e+09 1.08956603e+09 1.08956612e+09
 1.08956620e+09 1.08956629e+09 1.08956638e+09 1.08956646e+09
 1.08956655e+09 1.08956664e+09 1.08956672e+09 1.08956681e+09
 1.08956689e+09 1.08956698e+09 1.08956707e+09 1.08956715e+09
 1.08956724e+09 1.08956733e+09 1.08956741e+09 1.08956750e+09
 1.08956759e+09 1.08956767e+09 1.08956776e+09 1.08956785e+09
 1.08956793e+09 1.08956802e+09 1.08956811e+09 1.08956819e+09
 1.08956828e+09 1.08956837e+09 1.08956845e+09 1.08956854e+09
 1.08956862e+09 1.08956871e+09 1.08956880e+09 1.08956888e+09
 1.08956897e+09 1.08956906e+09 1.08956914e+09 1.08956923e+09
 1.08956932e+09 1.08956940e+09 1.08956949e+09 1.08956958e+09
 1.08956966e+09 1.08956975e+09 1.08956984e+09 1.08956992e+09
 1.08957001e+09 1.08957009e+09 1.08957018e+09 1.08957027e+09
 1.08957035e+09 1.08957044e+09 1.08957053e+09 1.08957061e+09
 1.08957070e+09 1.08957079e+09 1.08957087e+09 1.08957096e+09
 1.08957105e+09 1.08957113e+09 1.08957122e+09 1.08957131e+09
 1.08957139e+09 1.08957148e+09 1.08957157e+09 1.08957165e+09
 1.08957174e+09 1.08957182e+09 1.08957191e+09 1.08957200e+09
 1.08957208e+09 1.08957217e+09 1.08957226e+09 1.08957234e+09
 1.08957243e+09 1.08957252e+09 1.08957260e+09 1.08957269e+09
 1.08957278e+09 1.08957286e+09 1.08957295e+09 1.08957304e+09
 1.08957312e+09 1.08957321e+09 1.08957329e+09 1.08957338e+09
 1.08957347e+09 1.08957355e+09 1.08957364e+09 1.08957373e+09
 1.08957381e+09 1.08957390e+09 1.08957399e+09 1.08957407e+09
 1.08957416e+09 1.08957425e+09 1.08957433e+09 1.08957442e+09
 1.08957451e+09 1.08957459e+09 1.08957468e+09 1.08957477e+09
 1.08957485e+09 1.08957494e+09 1.08957502e+09 1.08957511e+09
 1.08957520e+09 1.08957528e+09 1.08957537e+09 1.08957546e+09
 1.08957554e+09 1.08957563e+09 1.08957572e+09 1.08957580e+09
 1.08957589e+09 1.08957598e+09 1.08957606e+09 1.08957615e+09
 1.08957624e+09 1.08957632e+09 1.08957641e+09 1.08957649e+09
 1.08957658e+09 1.08957667e+09 1.08957675e+09 1.08957684e+09
 1.08957693e+09 1.08957701e+09 1.08957710e+09 1.08957719e+09
 1.08957727e+09 1.08957736e+09 1.08957745e+09 1.08957753e+09
 1.08957762e+09 1.08957771e+09 1.08957779e+09 1.08957788e+09
 1.08957797e+09 1.08957805e+09 1.08957814e+09 1.08957822e+09
 1.08957831e+09 1.08957840e+09 1.08957848e+09 1.08957857e+09
 1.08957866e+09 1.08957874e+09 1.08957883e+09 1.08957892e+09
 1.08957900e+09 1.08957909e+09 1.08957918e+09 1.08957926e+09
 1.08957935e+09 1.08957944e+09 1.08957952e+09 1.08957961e+09
 1.08957969e+09 1.08957978e+09 1.08957987e+09 1.08957995e+09
 1.08958004e+09 1.08958013e+09 1.08958021e+09 1.08958030e+09
 1.08958039e+09 1.08958047e+09 1.08958056e+09 1.08958065e+09
