name =JUICE_ROI_GAN_6_1_03
flyby = ['2034 SEP 07 06:03:51', '2034 SEP 08 06:03:51']
Observation TW = <SpiceCell dtype = 1, length = 0, size = 3200, card = 12, is_set = 1, adjust = 0, init = 1, base = 94546994984816, data = 94546994984864>
Res(t) = [1.58475475 1.58277653 1.58080143 1.57882945 1.57686059 1.57489486
 1.57293225 1.57097279 1.56901646 1.56706328 1.56511325 1.56316636
 1.56122264 1.55928208 1.55734469 1.55541046 1.55347941 1.55155155
 1.54962686 1.54770537 1.54578707 1.54387196 1.54196006 1.54005137
 1.53814589 1.53624362 1.53434458 1.53244876 1.53055617 1.52866682
 1.52678071 1.52489784 1.52301822 1.52114185 1.51926875 1.51739891
 1.51553233 1.51366903 1.51180901 1.50995227 1.50809882 1.50624866
 1.5044018  1.50255825 1.500718   1.49888106 1.49704744 1.49521714
 1.49339017 1.49156653 1.48974622 1.48792926 1.48611565 1.48430539
 1.48249849 1.48069495 1.47889477 1.47709797 1.47530455 1.47351451
 1.47172785 1.4699446  1.46816473 1.46638828 1.46461523 1.46284559
 1.46107937 1.45931658 1.45755721 1.45580129 1.4540488  1.45229975
 1.45055416 1.44881202 1.44707334 1.44533813 1.44360639 1.44187812
 1.44015334 1.43843205 1.43671425 1.43499994 1.43328914 1.43158185
 1.42987807 1.42817782 1.42648108 1.42478788 1.42309822 1.42141209
 1.41972951 1.41805049 1.41637502 1.41470311 1.41303477 1.41137001
 1.40970883 1.40805123 1.40639722 1.40474681 1.4031     1.40145679
 1.3998172  1.39818123 1.39654888 1.39492015 1.39329507 1.39167362
 1.39005582 1.38844167 1.38683118 1.38522435 1.38362119 1.3820217
 1.38042589 1.37883376 1.37724533 1.37566059 1.37407955 1.37250222
 1.3709286  1.3693587  1.36779253 1.36623008 1.36467137 1.3631164
 1.36156518 1.36001771 1.35847399 1.35693404 1.35539786 1.35386545
 1.35233682 1.35081198 1.34929093 1.34777368 1.34626023 1.34475059
 1.34324476 1.34174275 1.34024456 1.33875021 1.33725969 1.33577302
 1.33429019 1.33281122 1.3313361  1.32986485 1.32839747 1.32693397
 1.32547434 1.32401861 1.32256676 1.32111881 1.31967477 1.31823464
 1.31679842 1.31536612 1.31393775 1.31251331 1.3110928  1.30967624
 1.30826363 1.30685497 1.30545027 1.30404953 1.30265277 1.30125998
 1.29987117 1.29848635 1.29710552 1.29572869 1.29435586 1.29298704
 1.29162224 1.29026145 1.28890469 1.28755196 1.28620327 1.28485862
 1.28351801 1.28218146 1.28084896 1.27952053 1.27819616 1.27687587
 1.27555966 1.27424753 1.27293949 1.27163555 1.2703357  1.26903996
 1.26774833 1.26646082 1.26517743 1.26389816 1.26262303 1.26135203
 1.26008518 1.25882247 1.25756391 1.25630951 1.25505927 1.2538132
 1.25257131 1.25133358 1.25010005 1.2488707  1.24764554 1.24642458
 1.24520782 1.24399527 1.24278693 1.24158281 1.24038291 1.23918724
 1.2379958  1.2368086  1.23562563 1.23444692 1.23327245 1.23210224
 1.23093629 1.22977461 1.2286172  1.22746406 1.2263152  1.22517062
 1.22403033 1.22289433 1.22176263 1.22063524 1.21951215 1.21839337
 1.2172789  1.21616876 1.21506293 1.21396144 1.21286428 1.21177146
 1.21068298 1.20959884 1.20851905 1.20744362 1.20637254 1.20530583
 1.20424348 1.20318551 1.20213191 1.20108268 1.20003784 1.19899739
 1.19796132 1.19692965 1.19590238 1.19487951 1.19386105 1.19284699
 1.19183735 1.19083213 1.18983132 1.18883494 1.18784299 1.18685547
 1.18587239 1.18489374 1.18391953 1.18294978 1.18198447 1.18102361
 1.18006721 1.17911526 1.17816778 1.17722476 1.17628622 1.17535214
 1.17442254 1.17349742 1.17257678 1.17166062 1.17074895 1.16984177
 1.16893908 1.16804089 1.16714719 1.166258   1.16537331 1.16449313
 1.16361746 1.16274629 1.16187965 1.16101752 1.16015991 1.15930682
 1.15845826 1.15761422 1.15677472 1.15593974 1.1551093  1.15428339
 1.15346202 1.1526452  1.15183291 1.15102517 1.15022197 1.14942333
 1.14862923 1.14783968 1.14705469 1.14627426 1.14549838 1.14472706
 1.1439603  1.14319811 1.14244047 1.14168741 1.14093891 1.14019497
 1.13945561 1.13872082 1.1379906  1.13726495 1.13654388 1.13582738
 1.13511546 1.13440812 1.13370535 1.13300717 1.13231357 1.13162454
 1.1309401  1.13026024 1.12958497 1.12891428 1.12824817 1.12758665
 1.12692972 1.12627737 1.12562961 1.12498643 1.12434784 1.12371384
 1.12308443 1.1224596  1.12183937 1.12122372 1.12061265 1.12000618
 1.11940429 1.11880699 1.11821428 1.11762615 1.11704262 1.11646366
 1.1158893  1.11531951 1.11475432 1.11419371 1.11363768 1.11308623
 1.11253937 1.11199708 1.11145938 1.11092626 1.11039771 1.10987374
 1.10935435 1.10883954 1.1083293  1.10782363 1.10732253 1.106826
 1.10633404 1.10584665 1.10536383 1.10488557 1.10441187 1.10394273
 1.10347816 1.10301814 1.10256267 1.10211176 1.1016654  1.10122359
 1.10078633 1.10035362 1.09992544 1.09950181 1.09908272 1.09866817
 1.09825815 1.09785266 1.0974517  1.09705527 1.09666336 1.09627597
 1.0958931  1.09551475 1.09514091 1.09477159 1.09440677 1.09404645
 1.09369064 1.09333932 1.0929925  1.09265017 1.09231233 1.09197898
 1.0916501  1.09132571 1.09100579 1.09069035 1.09037937 1.09007285
 1.0897708  1.0894732  1.08918006 1.08889136 1.08860711 1.08832731
 1.08805194 1.087781   1.08751449 1.08725241 1.08699474 1.0867415
 1.08649266 1.08624824 1.08600822 1.08577259 1.08554136 1.08531452
 1.08509206 1.08487399 1.08466029 1.08445096 1.08424599 1.08404539
 1.08384914 1.08365725 1.08346969 1.08328648 1.08310761 1.08293306
 1.08276284 1.08259694 1.08243535 1.08227807 1.0821251  1.08197642
 1.08183203 1.08169193 1.08155611 1.08142457 1.08129729 1.08117428
 1.08105552 1.08094101 1.08083075 1.08072473 1.08062295 1.08052538
 1.08043204 1.08034292 1.080258   1.08017728 1.08010076 1.08002843
 1.07996028 1.07989631 1.0798365  1.07978086 1.07972938 1.07968204
 1.07963884 1.07959979 1.07956486 1.07953405 1.07950735 1.07948477
 1.07946628 1.07945189 1.07944159 1.07943537 1.07943321 1.07943513
 1.0794411  1.07945112 1.07946518 1.07948328 1.0795054  1.07953155
 1.07956171 1.07959587 1.07963404 1.07967619 1.07972232 1.07977243
 1.07982651 1.07988454 1.07994652 1.08001245 1.08008231 1.0801561
 1.08023381 1.08031542 1.08040094 1.08049036 1.08058366 1.08068083
 1.08078188 1.08088679 1.08099555 1.08110815 1.0812246  1.08134486
 1.08146895 1.08159685 1.08172855 1.08186404 1.08200332 1.08214637
 1.08229319 1.08244377 1.0825981  1.08275617 1.08291797 1.08308349
 1.08325273 1.08342568 1.08360231 1.08378264 1.08396664 1.08415432
 1.08434565 1.08454063 1.08473926 1.08494152 1.0851474  1.08535689
 1.08556999 1.08578669 1.08600697 1.08623082 1.08645824 1.08668923
 1.08692376 1.08716182 1.08740342 1.08764854 1.08789716 1.08814929
 1.08840491 1.08866401 1.08892658 1.08919262 1.0894621  1.08973503
 1.09001139 1.09029117 1.09057437 1.09086097 1.09115096 1.09144434
 1.09174109 1.09204121 1.09234468 1.09265149 1.09296163 1.09327511
 1.09359189 1.09391198 1.09423536 1.09456203 1.09489197 1.09522517
 1.09556163 1.09590133 1.09624426 1.09659042 1.09693979 1.09729236
 1.09764813 1.09800707 1.09836919 1.09873447 1.0991029  1.09947448
 1.09984918 1.10022701 1.10060794 1.10099198 1.1013791  1.1017693
 1.10216257 1.1025589  1.10295828 1.1033607  1.10376614 1.1041746
 1.10458607 1.10500053 1.10541797 1.1058384  1.10626178 1.10668812
 1.1071174  1.10754962 1.10798476 1.10842281 1.10886376 1.1093076
 1.10975432 1.11020391 1.11065637 1.11111167 1.1115698  1.11203077
 1.11249455 1.11296114 1.11343052 1.11390269 1.11437763 1.11485534
 1.1153358  1.11581901 1.11630494 1.1167936  1.11728497 1.11777903
 1.11827579 1.11877523 1.11927734 1.1197821  1.12028951 1.12079956
 1.12131223 1.12182752 1.12234541 1.1228659  1.12338897 1.12391462
 1.12444283 1.12497359 1.12550689 1.12604272 1.12658107 1.12712193
 1.12766529 1.12821114 1.12875947 1.12931026 1.12986351 1.13041921
 1.13097734 1.13153789 1.13210087 1.13266624 1.13323401 1.13380416
 1.13437669 1.13495157 1.13552881 1.13610839 1.1366903  1.13727453
 1.13786107 1.13844991 1.13904103 1.13963444 1.14023011 1.14082804
 1.14142822 1.14203063 1.14263527 1.14324212 1.14385118 1.14446244
 1.14507588 1.14569149 1.14630927 1.14692921 1.14755128 1.14817549
 1.14880182 1.14943027 1.15006081 1.15069345 1.15132817 1.15196497
 1.15260382 1.15324472 1.15388767 1.15453265 1.15517965 1.15582865
 1.15647966 1.15713266 1.15778764 1.15844459 1.15910351 1.15976437
 1.16042717 1.1610919  1.16175855 1.16242711 1.16309758 1.16376993
 1.16444416 1.16512027 1.16579823 1.16647805 1.16715971 1.16784319
 1.1685285  1.16921562 1.16990455 1.17059526 1.17128776 1.17198203
 1.17267806 1.17337584 1.17407537 1.17477664 1.17547962 1.17618433
 1.17689073 1.17759883 1.17830862 1.17902009 1.17973322 1.18044801
 1.18116445 1.18188252 1.18260223 1.18332355 1.18404649 1.18477102
 1.18549715 1.18622486 1.18695415 1.18768499 1.1884174  1.18915134
 1.18988683 1.19062384 1.19136236 1.1921024  1.19284394 1.19358697
 1.19433147 1.19507746 1.1958249  1.1965738  1.19732414 1.19807593
 1.19882913 1.19958376 1.2003398  1.20109724 1.20185607 1.20261628
 1.20337787 1.20414083 1.20490514 1.2056708  1.2064378  1.20720613
 1.20797578 1.20874675 1.20951902 1.21029259 1.21106745 1.21184359
 1.212621   1.21339967 1.2141796  1.21496077 1.21574318 1.21652682
 1.21731168 1.21809776 1.21888503 1.21967351 1.22046317 1.22125401
 1.22204603 1.22283921 1.22363354 1.22442902 1.22522564 1.22602339
 1.22682227 1.22762226 1.22842335 1.22922555 1.23002884 1.23083321
 1.23163866 1.23244518 1.23325276 1.23406138 1.23487106 1.23568177
 1.23649351 1.23730628 1.23812005 1.23893484 1.23975062 1.2405674
 1.24138516 1.24220389 1.2430236  1.24384427 1.24466589 1.24548846
 1.24631197 1.24713641 1.24796177 1.24878806 1.24961525 1.25044335
 1.25127235 1.25210223 1.252933   1.25376464 1.25459715 1.25543052
 1.25626474 1.25709981 1.25793573 1.25877247 1.25961004 1.26044843
 1.26128764 1.26212765 1.26296846 1.26381006 1.26465245 1.26549561
 1.26633955 1.26718426 1.26802972 1.26887594 1.2697229  1.2705706
 1.27141904 1.2722682  1.27311809 1.27396868 1.27481999 1.275672
 1.2765247  1.27737809 1.27823216 1.27908691 1.27994233 1.28079842
 1.28165516 1.28251255 1.28337059 1.28422927 1.28508858 1.28594852
 1.28680909 1.28767026 1.28853205 1.28939445 1.29025744 1.29112102
 1.29198519 1.29284995 1.29371527 1.29458117 1.29544763 1.29631465
 1.29718222 1.29805034 1.29891901 1.2997882  1.30065793 1.30152819
 1.30239896 1.30327025 1.30414205 1.30501435 1.30588715 1.30676045
 1.30763423 1.30850849 1.30938324 1.31025845 1.31113413 1.31201028
 1.31288688 1.31376394 1.31464144 1.31551938 1.31639776 1.31727658
 1.31815582 1.31903548 1.31991556 1.32079606 1.32167696 1.32255827
 1.32343997 1.32432207 1.32520456 1.32608743 1.32697069 1.32785431
 1.32873831 1.32962268 1.33050741 1.33139249 1.33227793 1.33316372
 1.33404985 1.33493633 1.33582313 1.33671027 1.33759774 1.33848553
 1.33937364 1.34026206 1.34115079 1.34203983 1.34292917 1.34381881
 1.34470875 1.34559897 1.34648948 1.34738027 1.34827134 1.34916269
 1.3500543  1.35094618 1.35183833 1.35273073 1.35362339 1.3545163
 1.35540946 1.35630286 1.35719651 1.35809039 1.3589845  1.35987884
 1.36077341 1.3616682  1.36256321 1.36345844 1.36435388 1.36524953
 1.36614538 1.36704144 1.3679377  1.36883415 1.36973079 1.37062762
 1.37152464 1.37242184 1.37331923 1.37421678 1.37511452 1.37601242
 1.37691049 1.37780872 1.37870712 1.37960567 1.38050438 1.38140324
 1.38230225 1.38320141 1.38410071 1.38500016 1.38589974 1.38679946
 1.38769931 1.38859929 1.3894994  1.39039963 1.39129998 1.39220046
 1.39310105 1.39400176 1.39490258 1.39580351 1.39670455 1.39760569
 1.39850693 1.39940827 1.40030972 1.40121125 1.40211288 1.4030146
 1.40391641 1.40481831 1.40572029 1.40662235]
t = [1.09449390e+09 1.09449399e+09 1.09449407e+09 1.09449416e+09
 1.09449425e+09 1.09449433e+09 1.09449442e+09 1.09449451e+09
 1.09449459e+09 1.09449468e+09 1.09449477e+09 1.09449485e+09
 1.09449494e+09 1.09449502e+09 1.09449511e+09 1.09449520e+09
 1.09449528e+09 1.09449537e+09 1.09449546e+09 1.09449554e+09
 1.09449563e+09 1.09449572e+09 1.09449580e+09 1.09449589e+09
 1.09449598e+09 1.09449606e+09 1.09449615e+09 1.09449624e+09
 1.09449632e+09 1.09449641e+09 1.09449649e+09 1.09449658e+09
 1.09449667e+09 1.09449675e+09 1.09449684e+09 1.09449693e+09
 1.09449701e+09 1.09449710e+09 1.09449719e+09 1.09449727e+09
 1.09449736e+09 1.09449745e+09 1.09449753e+09 1.09449762e+09
 1.09449771e+09 1.09449779e+09 1.09449788e+09 1.09449797e+09
 1.09449805e+09 1.09449814e+09 1.09449822e+09 1.09449831e+09
 1.09449840e+09 1.09449848e+09 1.09449857e+09 1.09449866e+09
 1.09449874e+09 1.09449883e+09 1.09449892e+09 1.09449900e+09
 1.09449909e+09 1.09449918e+09 1.09449926e+09 1.09449935e+09
 1.09449944e+09 1.09449952e+09 1.09449961e+09 1.09449969e+09
 1.09449978e+09 1.09449987e+09 1.09449995e+09 1.09450004e+09
 1.09450013e+09 1.09450021e+09 1.09450030e+09 1.09450039e+09
 1.09450047e+09 1.09450056e+09 1.09450065e+09 1.09450073e+09
 1.09450082e+09 1.09450091e+09 1.09450099e+09 1.09450108e+09
 1.09450117e+09 1.09450125e+09 1.09450134e+09 1.09450142e+09
 1.09450151e+09 1.09450160e+09 1.09450168e+09 1.09450177e+09
 1.09450186e+09 1.09450194e+09 1.09450203e+09 1.09450212e+09
 1.09450220e+09 1.09450229e+09 1.09450238e+09 1.09450246e+09
 1.09450255e+09 1.09450264e+09 1.09450272e+09 1.09450281e+09
 1.09450289e+09 1.09450298e+09 1.09450307e+09 1.09450315e+09
 1.09450324e+09 1.09450333e+09 1.09450341e+09 1.09450350e+09
 1.09450359e+09 1.09450367e+09 1.09450376e+09 1.09450385e+09
 1.09450393e+09 1.09450402e+09 1.09450411e+09 1.09450419e+09
 1.09450428e+09 1.09450437e+09 1.09450445e+09 1.09450454e+09
 1.09450462e+09 1.09450471e+09 1.09450480e+09 1.09450488e+09
 1.09450497e+09 1.09450506e+09 1.09450514e+09 1.09450523e+09
 1.09450532e+09 1.09450540e+09 1.09450549e+09 1.09450558e+09
 1.09450566e+09 1.09450575e+09 1.09450584e+09 1.09450592e+09
 1.09450601e+09 1.09450609e+09 1.09450618e+09 1.09450627e+09
 1.09450635e+09 1.09450644e+09 1.09450653e+09 1.09450661e+09
 1.09450670e+09 1.09450679e+09 1.09450687e+09 1.09450696e+09
 1.09450705e+09 1.09450713e+09 1.09450722e+09 1.09450731e+09
 1.09450739e+09 1.09450748e+09 1.09450757e+09 1.09450765e+09
 1.09450774e+09 1.09450782e+09 1.09450791e+09 1.09450800e+09
 1.09450808e+09 1.09450817e+09 1.09450826e+09 1.09450834e+09
 1.09450843e+09 1.09450852e+09 1.09450860e+09 1.09450869e+09
 1.09450878e+09 1.09450886e+09 1.09450895e+09 1.09450904e+09
 1.09450912e+09 1.09450921e+09 1.09450929e+09 1.09450938e+09
 1.09450947e+09 1.09450955e+09 1.09450964e+09 1.09450973e+09
 1.09450981e+09 1.09450990e+09 1.09450999e+09 1.09451007e+09
 1.09451016e+09 1.09451025e+09 1.09451033e+09 1.09451042e+09
 1.09451051e+09 1.09451059e+09 1.09451068e+09 1.09451077e+09
 1.09451085e+09 1.09451094e+09 1.09451102e+09 1.09451111e+09
 1.09451120e+09 1.09451128e+09 1.09451137e+09 1.09451146e+09
 1.09451154e+09 1.09451163e+09 1.09451172e+09 1.09451180e+09
 1.09451189e+09 1.09451198e+09 1.09451206e+09 1.09451215e+09
 1.09451224e+09 1.09451232e+09 1.09451241e+09 1.09451249e+09
 1.09451258e+09 1.09451267e+09 1.09451275e+09 1.09451284e+09
 1.09451293e+09 1.09451301e+09 1.09451310e+09 1.09451319e+09
 1.09451327e+09 1.09451336e+09 1.09451345e+09 1.09451353e+09
 1.09451362e+09 1.09451371e+09 1.09451379e+09 1.09451388e+09
 1.09451397e+09 1.09451405e+09 1.09451414e+09 1.09451422e+09
 1.09451431e+09 1.09451440e+09 1.09451448e+09 1.09451457e+09
 1.09451466e+09 1.09451474e+09 1.09451483e+09 1.09451492e+09
 1.09451500e+09 1.09451509e+09 1.09451518e+09 1.09451526e+09
 1.09451535e+09 1.09451544e+09 1.09451552e+09 1.09451561e+09
 1.09451569e+09 1.09451578e+09 1.09451587e+09 1.09451595e+09
 1.09451604e+09 1.09451613e+09 1.09451621e+09 1.09451630e+09
 1.09451639e+09 1.09451647e+09 1.09451656e+09 1.09451665e+09
 1.09451673e+09 1.09451682e+09 1.09451691e+09 1.09451699e+09
 1.09451708e+09 1.09451717e+09 1.09451725e+09 1.09451734e+09
 1.09451742e+09 1.09451751e+09 1.09451760e+09 1.09451768e+09
 1.09451777e+09 1.09451786e+09 1.09451794e+09 1.09451803e+09
 1.09451812e+09 1.09451820e+09 1.09451829e+09 1.09451838e+09
 1.09451846e+09 1.09451855e+09 1.09451864e+09 1.09451872e+09
 1.09451881e+09 1.09451889e+09 1.09451898e+09 1.09451907e+09
 1.09451915e+09 1.09451924e+09 1.09451933e+09 1.09451941e+09
 1.09451950e+09 1.09451959e+09 1.09451967e+09 1.09451976e+09
 1.09451985e+09 1.09451993e+09 1.09452002e+09 1.09452011e+09
 1.09452019e+09 1.09452028e+09 1.09452037e+09 1.09452045e+09
 1.09452054e+09 1.09452062e+09 1.09452071e+09 1.09452080e+09
 1.09452088e+09 1.09452097e+09 1.09452106e+09 1.09452114e+09
 1.09452123e+09 1.09452132e+09 1.09452140e+09 1.09452149e+09
 1.09452158e+09 1.09452166e+09 1.09452175e+09 1.09452184e+09
 1.09452192e+09 1.09452201e+09 1.09452209e+09 1.09452218e+09
 1.09452227e+09 1.09452235e+09 1.09452244e+09 1.09452253e+09
 1.09452261e+09 1.09452270e+09 1.09452279e+09 1.09452287e+09
 1.09452296e+09 1.09452305e+09 1.09452313e+09 1.09452322e+09
 1.09452331e+09 1.09452339e+09 1.09452348e+09 1.09452357e+09
 1.09452365e+09 1.09452374e+09 1.09452382e+09 1.09452391e+09
 1.09452400e+09 1.09452408e+09 1.09452417e+09 1.09452426e+09
 1.09452434e+09 1.09452443e+09 1.09452452e+09 1.09452460e+09
 1.09452469e+09 1.09452478e+09 1.09452486e+09 1.09452495e+09
 1.09452504e+09 1.09452512e+09 1.09452521e+09 1.09452529e+09
 1.09452538e+09 1.09452547e+09 1.09452555e+09 1.09452564e+09
 1.09452573e+09 1.09452581e+09 1.09452590e+09 1.09452599e+09
 1.09452607e+09 1.09452616e+09 1.09452625e+09 1.09452633e+09
 1.09452642e+09 1.09452651e+09 1.09452659e+09 1.09452668e+09
 1.09452677e+09 1.09452685e+09 1.09452694e+09 1.09452702e+09
 1.09452711e+09 1.09452720e+09 1.09452728e+09 1.09452737e+09
 1.09452746e+09 1.09452754e+09 1.09452763e+09 1.09452772e+09
 1.09452780e+09 1.09452789e+09 1.09452798e+09 1.09452806e+09
 1.09452815e+09 1.09452824e+09 1.09452832e+09 1.09452841e+09
 1.09452849e+09 1.09452858e+09 1.09452867e+09 1.09452875e+09
 1.09452884e+09 1.09452893e+09 1.09452901e+09 1.09452910e+09
 1.09452919e+09 1.09452927e+09 1.09452936e+09 1.09452945e+09
 1.09452953e+09 1.09452962e+09 1.09452971e+09 1.09452979e+09
 1.09452988e+09 1.09452997e+09 1.09453005e+09 1.09453014e+09
 1.09453022e+09 1.09453031e+09 1.09453040e+09 1.09453048e+09
 1.09453057e+09 1.09453066e+09 1.09453074e+09 1.09453083e+09
 1.09453092e+09 1.09453100e+09 1.09453109e+09 1.09453118e+09
 1.09453126e+09 1.09453135e+09 1.09453144e+09 1.09453152e+09
 1.09453161e+09 1.09453169e+09 1.09453178e+09 1.09453187e+09
 1.09453195e+09 1.09453204e+09 1.09453213e+09 1.09453221e+09
 1.09453230e+09 1.09453239e+09 1.09453247e+09 1.09453256e+09
 1.09453265e+09 1.09453273e+09 1.09453282e+09 1.09453291e+09
 1.09453299e+09 1.09453308e+09 1.09453317e+09 1.09453325e+09
 1.09453334e+09 1.09453342e+09 1.09453351e+09 1.09453360e+09
 1.09453368e+09 1.09453377e+09 1.09453386e+09 1.09453394e+09
 1.09453403e+09 1.09453412e+09 1.09453420e+09 1.09453429e+09
 1.09453438e+09 1.09453446e+09 1.09453455e+09 1.09453464e+09
 1.09453472e+09 1.09453481e+09 1.09453489e+09 1.09453498e+09
 1.09453507e+09 1.09453515e+09 1.09453524e+09 1.09453533e+09
 1.09453541e+09 1.09453550e+09 1.09453559e+09 1.09453567e+09
 1.09453576e+09 1.09453585e+09 1.09453593e+09 1.09453602e+09
 1.09453611e+09 1.09453619e+09 1.09453628e+09 1.09453637e+09
 1.09453645e+09 1.09453654e+09 1.09453662e+09 1.09453671e+09
 1.09453680e+09 1.09453688e+09 1.09453697e+09 1.09453706e+09
 1.09453714e+09 1.09453723e+09 1.09453732e+09 1.09453740e+09
 1.09453749e+09 1.09453758e+09 1.09453766e+09 1.09453775e+09
 1.09453784e+09 1.09453792e+09 1.09453801e+09 1.09453809e+09
 1.09453818e+09 1.09453827e+09 1.09453835e+09 1.09453844e+09
 1.09453853e+09 1.09453861e+09 1.09453870e+09 1.09453879e+09
 1.09453887e+09 1.09453896e+09 1.09453905e+09 1.09453913e+09
 1.09453922e+09 1.09453931e+09 1.09453939e+09 1.09453948e+09
 1.09453957e+09 1.09453965e+09 1.09453974e+09 1.09453982e+09
 1.09453991e+09 1.09454000e+09 1.09454008e+09 1.09454017e+09
 1.09454026e+09 1.09454034e+09 1.09454043e+09 1.09454052e+09
 1.09454060e+09 1.09454069e+09 1.09454078e+09 1.09454086e+09
 1.09454095e+09 1.09454104e+09 1.09454112e+09 1.09454121e+09
 1.09454129e+09 1.09454138e+09 1.09454147e+09 1.09454155e+09
 1.09454164e+09 1.09454173e+09 1.09454181e+09 1.09454190e+09
 1.09454199e+09 1.09454207e+09 1.09454216e+09 1.09454225e+09
