name =JUICE_ROI_GAN_4_2_07
flyby = ['2034 NOV 18 09:58:51', '2034 NOV 19 09:58:51']
Observation TW = <SpiceCell dtype = 1, length = 0, size = 3200, card = 12, is_set = 1, adjust = 0, init = 1, base = 94677679225328, data = 94677679225376>
Res(t) = [0.93855852 0.93735033 0.93614562 0.93494438 0.93374662 0.93255235
 0.93136155 0.93017423 0.92899039 0.92781002 0.92663313 0.92545973
 0.92428979 0.92312333 0.92196035 0.92080084 0.91964481 0.91849225
 0.91734315 0.91619753 0.91505538 0.9139167  0.91278148 0.91164973
 0.91052144 0.90939661 0.90827525 0.90715735 0.9060429  0.90493191
 0.90382437 0.90272029 0.90161966 0.90052247 0.89942873 0.89833844
 0.89725159 0.89616819 0.89508821 0.89401168 0.89293858 0.89186891
 0.89080267 0.88973986 0.88868047 0.88762451 0.88657196 0.88552283
 0.88447712 0.88343481 0.88239592 0.88136043 0.88032834 0.87929965
 0.87827436 0.87725246 0.87623396 0.87521884 0.87420711 0.87319876
 0.87219379 0.87119219 0.87019397 0.86919911 0.86820762 0.86721949
 0.86623472 0.86525331 0.86427525 0.86330053 0.86232916 0.86136114
 0.86039645 0.85943509 0.85847706 0.85752236 0.85657099 0.85562293
 0.85467819 0.85373676 0.85279864 0.85186382 0.8509323  0.85000407
 0.84907914 0.8481575  0.84723914 0.84632406 0.84541226 0.84450373
 0.84359846 0.84269646 0.84179772 0.84090223 0.84001    0.83912101
 0.83823526 0.83735276 0.83647348 0.83559744 0.83472462 0.83385502
 0.83298864 0.83212547 0.8312655  0.83040874 0.82955518 0.82870481
 0.82785764 0.82701364 0.82617283 0.82533519 0.82450073 0.82366943
 0.8228413  0.82201632 0.82119449 0.82037582 0.81956028 0.81874789
 0.81793863 0.8171325  0.81632949 0.81552961 0.81473284 0.81393918
 0.81314863 0.81236117 0.81157682 0.81079555 0.81001738 0.80924228
 0.80847026 0.80770131 0.80693543 0.80617261 0.80541285 0.80465615
 0.80390249 0.80315187 0.80240429 0.80165975 0.80091823 0.80017973
 0.79944426 0.79871179 0.79798234 0.79725588 0.79653243 0.79581197
 0.7950945  0.79438001 0.7936685  0.79295996 0.79225439 0.79155178
 0.79085214 0.79015544 0.7894617  0.78877089 0.78808303 0.78739809
 0.78671609 0.78603701 0.78536085 0.7846876  0.78401725 0.78334981
 0.78268527 0.78202362 0.78136486 0.78070898 0.78005598 0.77940585
 0.77875858 0.77811418 0.77747264 0.77683395 0.7761981  0.7755651
 0.77493493 0.77430759 0.77368308 0.7730614  0.77244253 0.77182647
 0.77121321 0.77060276 0.7699951  0.76939023 0.76878815 0.76818885
 0.76759233 0.76699857 0.76640759 0.76581936 0.76523388 0.76465116
 0.76407118 0.76349394 0.76291944 0.76234766 0.76177861 0.76121229
 0.76064867 0.76008776 0.75952956 0.75897406 0.75842125 0.75787113
 0.7573237  0.75677895 0.75623686 0.75569745 0.7551607  0.75462662
 0.75409518 0.75356639 0.75304025 0.75251675 0.75199588 0.75147764
 0.75096202 0.75044902 0.74993864 0.74943086 0.74892569 0.74842312
 0.74792314 0.74742575 0.74693094 0.74643871 0.74594906 0.74546197
 0.74497745 0.74449549 0.74401608 0.74353922 0.74306491 0.74259313
 0.74212389 0.74165718 0.74119299 0.74073133 0.74027218 0.73981553
 0.7393614  0.73890976 0.73846062 0.73801396 0.7375698  0.73712811
 0.7366889  0.73625216 0.73581789 0.73538607 0.73495672 0.73452981
 0.73410536 0.73368334 0.73326376 0.73284662 0.7324319  0.7320196
 0.73160972 0.73120226 0.7307972  0.73039455 0.72999429 0.72959644
 0.72920097 0.72880788 0.72841717 0.72802884 0.72764288 0.72725929
 0.72687806 0.72649918 0.72612266 0.72574848 0.72537665 0.72500715
 0.72463999 0.72427515 0.72391264 0.72355245 0.72319457 0.722839
 0.72248574 0.72213478 0.72178612 0.72143975 0.72109566 0.72075386
 0.72041433 0.72007708 0.7197421  0.71940938 0.71907892 0.71875072
 0.71842477 0.71810106 0.7177796  0.71746037 0.71714338 0.71682861
 0.71651607 0.71620575 0.71589765 0.71559175 0.71528806 0.71498657
 0.71468728 0.71439019 0.71409528 0.71380255 0.71351201 0.71322364
 0.71293744 0.71265341 0.71237154 0.71209183 0.71181428 0.71153887
 0.71126561 0.71099449 0.7107255  0.71045865 0.71019393 0.70993133
 0.70967085 0.70941248 0.70915623 0.70890208 0.70865003 0.70840009
 0.70815223 0.70790647 0.70766279 0.7074212  0.70718168 0.70694423
 0.70670886 0.70647555 0.7062443  0.7060151  0.70578796 0.70556287
 0.70533982 0.70511881 0.70489984 0.7046829  0.70446799 0.7042551
 0.70404423 0.70383538 0.70362854 0.70342371 0.70322088 0.70302005
 0.70282122 0.70262438 0.70242953 0.70223666 0.70204577 0.70185685
 0.70166991 0.70148494 0.70130193 0.70112088 0.70094179 0.70076465
 0.70058945 0.70041621 0.7002449  0.70007553 0.69990809 0.69974259
 0.69957901 0.69941735 0.6992576  0.69909977 0.69894386 0.69878984
 0.69863773 0.69848752 0.69833921 0.69819278 0.69804825 0.69790559
 0.69776482 0.69762592 0.6974889  0.69735374 0.69722045 0.69708903
 0.69695946 0.69683174 0.69670587 0.69658185 0.69645968 0.69633934
 0.69622084 0.69610417 0.69598933 0.69587632 0.69576513 0.69565575
 0.69554819 0.69544244 0.6953385  0.69523636 0.69513603 0.69503748
 0.69494074 0.69484578 0.6947526  0.69466121 0.6945716  0.69448377
 0.69439771 0.69431341 0.69423088 0.69415012 0.69407111 0.69399385
 0.69391835 0.6938446  0.69377259 0.69370232 0.69363379 0.693567
 0.69350194 0.6934386  0.69337699 0.6933171  0.69325893 0.69320247
 0.69314773 0.69309469 0.69304335 0.69299372 0.69294579 0.69289955
 0.692855   0.69281215 0.69277097 0.69273148 0.69269367 0.69265753
 0.69262307 0.69259027 0.69255914 0.69252968 0.69250187 0.69247572
 0.69245122 0.69242837 0.69240717 0.69238761 0.6923697  0.69235342
 0.69233878 0.69232576 0.69231438 0.69230462 0.69229648 0.69228996
 0.69228506 0.69228177 0.69228009 0.69228002 0.69228155 0.69228469
 0.69228942 0.69229574 0.69230366 0.69231317 0.69232426 0.69233694
 0.69235119 0.69236703 0.69238443 0.69240341 0.69242396 0.69244607
 0.69246974 0.69249498 0.69252177 0.69255012 0.69258001 0.69261146
 0.69264445 0.69267898 0.69271505 0.69275266 0.6927918  0.69283248
 0.69287468 0.69291841 0.69296366 0.69301043 0.69305872 0.69310852
 0.69315983 0.69321266 0.69326699 0.69332282 0.69338015 0.69343899
 0.69349931 0.69356113 0.69362444 0.69368924 0.69375552 0.69382329
 0.69389253 0.69396325 0.69403545 0.69410912 0.69418425 0.69426085
 0.69433892 0.69441845 0.69449943 0.69458187 0.69466577 0.69475111
 0.6948379  0.69492614 0.69501582 0.69510695 0.69519951 0.6952935
 0.69538893 0.69548579 0.69558408 0.69568379 0.69578493 0.69588749
 0.69599146 0.69609685 0.69620366 0.69631187 0.6964215  0.69653253
 0.69664496 0.69675879 0.69687403 0.69699065 0.69710868 0.69722809
 0.6973489  0.69747109 0.69759466 0.69771962 0.69784596 0.69797367
 0.69810276 0.69823323 0.69836506 0.69849826 0.69863283 0.69876876
 0.69890605 0.69904471 0.69918472 0.69932608 0.6994688  0.69961286
 0.69975828 0.69990504 0.70005314 0.70020258 0.70035337 0.70050549
 0.70065895 0.70081373 0.70096985 0.7011273  0.70128607 0.70144617
 0.70160759 0.70177033 0.70193438 0.70209976 0.70226644 0.70243444
 0.70260374 0.70277435 0.70294627 0.70311949 0.70329401 0.70346983
 0.70364695 0.70382536 0.70400507 0.70418606 0.70436835 0.70455192
 0.70473677 0.70492291 0.70511033 0.70529903 0.705489   0.70568025
 0.70587277 0.70606657 0.70626163 0.70645796 0.70665555 0.70685441
 0.70705452 0.7072559  0.70745854 0.70766243 0.70786757 0.70807397
 0.70828161 0.70849051 0.70870065 0.70891203 0.70912466 0.70933853
 0.70955364 0.70976998 0.70998756 0.71020637 0.71042642 0.71064769
 0.71087019 0.71109392 0.71131887 0.71154505 0.71177245 0.71200106
 0.7122309  0.71246195 0.71269421 0.71292769 0.71316238 0.71339827
 0.71363537 0.71387368 0.7141132  0.71435391 0.71459583 0.71483894
 0.71508325 0.71532876 0.71557546 0.71582336 0.71607244 0.71632271
 0.71657417 0.71682682 0.71708065 0.71733567 0.71759186 0.71784924
 0.71810779 0.71836752 0.71862842 0.7188905  0.71915375 0.71941817
 0.71968375 0.71995051 0.72021843 0.72048752 0.72075776 0.72102917
 0.72130174 0.72157547 0.72185035 0.72212639 0.72240358 0.72268193
 0.72296142 0.72324207 0.72352386 0.7238068  0.72409089 0.72437612
 0.72466249 0.72495    0.72523865 0.72552844 0.72581937 0.72611143
 0.72640463 0.72669896 0.72699442 0.72729101 0.72758873 0.72788758
 0.72818756 0.72848865 0.72879088 0.72909422 0.72939868 0.72970427
 0.73001097 0.73031879 0.73062773 0.73093778 0.73124894 0.73156122
 0.7318746  0.7321891  0.7325047  0.73282141 0.73313923 0.73345815
 0.73377818 0.7340993  0.73442153 0.73474486 0.73506929 0.73539481
 0.73572143 0.73604915 0.73637796 0.73670786 0.73703886 0.73737094
 0.73770412 0.73803838 0.73837373 0.73871017 0.73904769 0.7393863
 0.73972599 0.74006676 0.74040861 0.74075155 0.74109556 0.74144064
 0.74178681 0.74213405 0.74248236 0.74283175 0.74318221 0.74353375
 0.74388635 0.74424002 0.74459476 0.74495057 0.74530744 0.74566538
 0.74602439 0.74638446 0.74674559 0.74710778 0.74747103 0.74783535
 0.74820072 0.74856715 0.74893464 0.74930318 0.74967278 0.75004343
 0.75041514 0.7507879  0.75116171 0.75153657 0.75191248 0.75228944
 0.75266745 0.75304651 0.75342661 0.75380776 0.75418995 0.75457319
 0.75495747 0.7553428  0.75572916 0.75611657 0.75650501 0.7568945
 0.75728502 0.75767658 0.75806918 0.75846282 0.75885749 0.75925319
 0.75964993 0.7600477  0.76044651 0.76084635 0.76124721 0.76164911
 0.76205204 0.762456   0.76286098 0.763267   0.76367404 0.7640821
 0.76449119 0.76490131 0.76531245 0.76572462 0.7661378  0.76655201
 0.76696724 0.7673835  0.76780077 0.76821906 0.76863838 0.76905871
 0.76948006 0.76990242 0.77032581 0.77075021 0.77117563 0.77160206
 0.7720295  0.77245796 0.77288744 0.77331792 0.77374942 0.77418194
 0.77461546 0.77504999 0.77548554 0.77592209 0.77635966 0.77679823
 0.77723781 0.7776784  0.77812    0.7785626  0.77900621 0.77945083
 0.77989646 0.78034308 0.78079072 0.78123936 0.781689   0.78213964
 0.78259129 0.78304394 0.7834976  0.78395225 0.78440791 0.78486457
 0.78532223 0.78578089 0.78624055 0.78670121 0.78716288 0.78762553
 0.78808919 0.78855385 0.78901951 0.78948616 0.78995381 0.79042246
 0.7908921  0.79136274 0.79183438 0.79230701 0.79278064 0.79325527
 0.79373089 0.79420751 0.79468512 0.79516372 0.79564332 0.79612391
 0.7966055  0.79708808 0.79757166 0.79805622 0.79854178 0.79902834
 0.79951588 0.80000442 0.80049395 0.80098447 0.80147599 0.80196849
 0.80246199 0.80295648 0.80345196 0.80394843 0.8044459  0.80494435
 0.80544379 0.80594423 0.80644565 0.80694807 0.80745148 0.80795587
 0.80846126 0.80896764 0.809475   0.80998336 0.81049271 0.81100304
 0.81151437 0.81202669 0.81253999 0.81305429 0.81356957 0.81408585
 0.81460311 0.81512137 0.81564061 0.81616085 0.81668207 0.81720428
 0.81772749 0.81825168 0.81877686 0.81930303 0.81983019 0.82035835
 0.82088749 0.82141762 0.82194874 0.82248085 0.82301395 0.82354805
 0.82408313 0.8246192  0.82515627 0.82569432 0.82623337 0.82677341
 0.82731443 0.82785645 0.82839946 0.82894346 0.82948846 0.83003444
 0.83058142 0.83112939 0.83167835 0.83222831 0.83277926 0.8333312
 0.83388413 0.83443806 0.83499298 0.83554889 0.8361058  0.8366637
 0.8372226  0.83778249 0.83834338 0.83890526 0.83946814 0.84003201
 0.84059688 0.84116275 0.84172961 0.84229747 0.84286632 0.84343618
 0.84400703 0.84457888 0.84515173 0.84572557 0.84630042 0.84687626
 0.84745311 0.84803095 0.8486098  0.84918965 0.84977049 0.85035234
 0.85093519 0.85151905 0.8521039  0.85268976 0.85327662 0.85386449
 0.85445336 0.85504324 0.85563412 0.856226   0.8568189  0.85741279
 0.8580077  0.85860361 0.85920053 0.85979846 0.8603974  0.86099735
 0.86159831 0.86220027 0.86280325 0.86340724 0.86401224 0.86461826
 0.86522528 0.86583332 0.86644238 0.86705245]
t = [1.10076135e+09 1.10076140e+09 1.10076146e+09 1.10076151e+09
 1.10076157e+09 1.10076162e+09 1.10076167e+09 1.10076173e+09
 1.10076178e+09 1.10076184e+09 1.10076189e+09 1.10076194e+09
 1.10076200e+09 1.10076205e+09 1.10076210e+09 1.10076216e+09
 1.10076221e+09 1.10076227e+09 1.10076232e+09 1.10076237e+09
 1.10076243e+09 1.10076248e+09 1.10076254e+09 1.10076259e+09
 1.10076264e+09 1.10076270e+09 1.10076275e+09 1.10076281e+09
 1.10076286e+09 1.10076291e+09 1.10076297e+09 1.10076302e+09
 1.10076308e+09 1.10076313e+09 1.10076318e+09 1.10076324e+09
 1.10076329e+09 1.10076334e+09 1.10076340e+09 1.10076345e+09
 1.10076351e+09 1.10076356e+09 1.10076361e+09 1.10076367e+09
 1.10076372e+09 1.10076378e+09 1.10076383e+09 1.10076388e+09
 1.10076394e+09 1.10076399e+09 1.10076405e+09 1.10076410e+09
 1.10076415e+09 1.10076421e+09 1.10076426e+09 1.10076431e+09
 1.10076437e+09 1.10076442e+09 1.10076448e+09 1.10076453e+09
 1.10076458e+09 1.10076464e+09 1.10076469e+09 1.10076475e+09
 1.10076480e+09 1.10076485e+09 1.10076491e+09 1.10076496e+09
 1.10076502e+09 1.10076507e+09 1.10076512e+09 1.10076518e+09
 1.10076523e+09 1.10076529e+09 1.10076534e+09 1.10076539e+09
 1.10076545e+09 1.10076550e+09 1.10076555e+09 1.10076561e+09
 1.10076566e+09 1.10076572e+09 1.10076577e+09 1.10076582e+09
 1.10076588e+09 1.10076593e+09 1.10076599e+09 1.10076604e+09
 1.10076609e+09 1.10076615e+09 1.10076620e+09 1.10076626e+09
 1.10076631e+09 1.10076636e+09 1.10076642e+09 1.10076647e+09
 1.10076652e+09 1.10076658e+09 1.10076663e+09 1.10076669e+09
 1.10076674e+09 1.10076679e+09 1.10076685e+09 1.10076690e+09
 1.10076696e+09 1.10076701e+09 1.10076706e+09 1.10076712e+09
 1.10076717e+09 1.10076723e+09 1.10076728e+09 1.10076733e+09
 1.10076739e+09 1.10076744e+09 1.10076750e+09 1.10076755e+09
 1.10076760e+09 1.10076766e+09 1.10076771e+09 1.10076776e+09
 1.10076782e+09 1.10076787e+09 1.10076793e+09 1.10076798e+09
 1.10076803e+09 1.10076809e+09 1.10076814e+09 1.10076820e+09
 1.10076825e+09 1.10076830e+09 1.10076836e+09 1.10076841e+09
 1.10076847e+09 1.10076852e+09 1.10076857e+09 1.10076863e+09
 1.10076868e+09 1.10076874e+09 1.10076879e+09 1.10076884e+09
 1.10076890e+09 1.10076895e+09 1.10076900e+09 1.10076906e+09
 1.10076911e+09 1.10076917e+09 1.10076922e+09 1.10076927e+09
 1.10076933e+09 1.10076938e+09 1.10076944e+09 1.10076949e+09
 1.10076954e+09 1.10076960e+09 1.10076965e+09 1.10076971e+09
 1.10076976e+09 1.10076981e+09 1.10076987e+09 1.10076992e+09
 1.10076997e+09 1.10077003e+09 1.10077008e+09 1.10077014e+09
 1.10077019e+09 1.10077024e+09 1.10077030e+09 1.10077035e+09
 1.10077041e+09 1.10077046e+09 1.10077051e+09 1.10077057e+09
 1.10077062e+09 1.10077068e+09 1.10077073e+09 1.10077078e+09
 1.10077084e+09 1.10077089e+09 1.10077095e+09 1.10077100e+09
 1.10077105e+09 1.10077111e+09 1.10077116e+09 1.10077121e+09
 1.10077127e+09 1.10077132e+09 1.10077138e+09 1.10077143e+09
 1.10077148e+09 1.10077154e+09 1.10077159e+09 1.10077165e+09
 1.10077170e+09 1.10077175e+09 1.10077181e+09 1.10077186e+09
 1.10077192e+09 1.10077197e+09 1.10077202e+09 1.10077208e+09
 1.10077213e+09 1.10077218e+09 1.10077224e+09 1.10077229e+09
 1.10077235e+09 1.10077240e+09 1.10077245e+09 1.10077251e+09
 1.10077256e+09 1.10077262e+09 1.10077267e+09 1.10077272e+09
 1.10077278e+09 1.10077283e+09 1.10077289e+09 1.10077294e+09
 1.10077299e+09 1.10077305e+09 1.10077310e+09 1.10077316e+09
 1.10077321e+09 1.10077326e+09 1.10077332e+09 1.10077337e+09
 1.10077342e+09 1.10077348e+09 1.10077353e+09 1.10077359e+09
 1.10077364e+09 1.10077369e+09 1.10077375e+09 1.10077380e+09
 1.10077386e+09 1.10077391e+09 1.10077396e+09 1.10077402e+09
 1.10077407e+09 1.10077413e+09 1.10077418e+09 1.10077423e+09
 1.10077429e+09 1.10077434e+09 1.10077439e+09 1.10077445e+09
 1.10077450e+09 1.10077456e+09 1.10077461e+09 1.10077466e+09
 1.10077472e+09 1.10077477e+09 1.10077483e+09 1.10077488e+09
 1.10077493e+09 1.10077499e+09 1.10077504e+09 1.10077510e+09
 1.10077515e+09 1.10077520e+09 1.10077526e+09 1.10077531e+09
 1.10077537e+09 1.10077542e+09 1.10077547e+09 1.10077553e+09
 1.10077558e+09 1.10077563e+09 1.10077569e+09 1.10077574e+09
 1.10077580e+09 1.10077585e+09 1.10077590e+09 1.10077596e+09
 1.10077601e+09 1.10077607e+09 1.10077612e+09 1.10077617e+09
 1.10077623e+09 1.10077628e+09 1.10077634e+09 1.10077639e+09
 1.10077644e+09 1.10077650e+09 1.10077655e+09 1.10077660e+09
 1.10077666e+09 1.10077671e+09 1.10077677e+09 1.10077682e+09
 1.10077687e+09 1.10077693e+09 1.10077698e+09 1.10077704e+09
 1.10077709e+09 1.10077714e+09 1.10077720e+09 1.10077725e+09
 1.10077731e+09 1.10077736e+09 1.10077741e+09 1.10077747e+09
 1.10077752e+09 1.10077758e+09 1.10077763e+09 1.10077768e+09
 1.10077774e+09 1.10077779e+09 1.10077784e+09 1.10077790e+09
 1.10077795e+09 1.10077801e+09 1.10077806e+09 1.10077811e+09
 1.10077817e+09 1.10077822e+09 1.10077828e+09 1.10077833e+09
 1.10077838e+09 1.10077844e+09 1.10077849e+09 1.10077855e+09
 1.10077860e+09 1.10077865e+09 1.10077871e+09 1.10077876e+09
 1.10077882e+09 1.10077887e+09 1.10077892e+09 1.10077898e+09
 1.10077903e+09 1.10077908e+09 1.10077914e+09 1.10077919e+09
 1.10077925e+09 1.10077930e+09 1.10077935e+09 1.10077941e+09
 1.10077946e+09 1.10077952e+09 1.10077957e+09 1.10077962e+09
 1.10077968e+09 1.10077973e+09 1.10077979e+09 1.10077984e+09
 1.10077989e+09 1.10077995e+09 1.10078000e+09 1.10078005e+09
 1.10078011e+09 1.10078016e+09 1.10078022e+09 1.10078027e+09
 1.10078032e+09 1.10078038e+09 1.10078043e+09 1.10078049e+09
 1.10078054e+09 1.10078059e+09 1.10078065e+09 1.10078070e+09
 1.10078076e+09 1.10078081e+09 1.10078086e+09 1.10078092e+09
 1.10078097e+09 1.10078103e+09 1.10078108e+09 1.10078113e+09
 1.10078119e+09 1.10078124e+09 1.10078129e+09 1.10078135e+09
 1.10078140e+09 1.10078146e+09 1.10078151e+09 1.10078156e+09
 1.10078162e+09 1.10078167e+09 1.10078173e+09 1.10078178e+09
 1.10078183e+09 1.10078189e+09 1.10078194e+09 1.10078200e+09
 1.10078205e+09 1.10078210e+09 1.10078216e+09 1.10078221e+09
 1.10078226e+09 1.10078232e+09 1.10078237e+09 1.10078243e+09
 1.10078248e+09 1.10078253e+09 1.10078259e+09 1.10078264e+09
 1.10078270e+09 1.10078275e+09 1.10078280e+09 1.10078286e+09
 1.10078291e+09 1.10078297e+09 1.10078302e+09 1.10078307e+09
 1.10078313e+09 1.10078318e+09 1.10078324e+09 1.10078329e+09
 1.10078334e+09 1.10078340e+09 1.10078345e+09 1.10078350e+09
 1.10078356e+09 1.10078361e+09 1.10078367e+09 1.10078372e+09
 1.10078377e+09 1.10078383e+09 1.10078388e+09 1.10078394e+09
 1.10078399e+09 1.10078404e+09 1.10078410e+09 1.10078415e+09
 1.10078421e+09 1.10078426e+09 1.10078431e+09 1.10078437e+09
 1.10078442e+09 1.10078447e+09 1.10078453e+09 1.10078458e+09
 1.10078464e+09 1.10078469e+09 1.10078474e+09 1.10078480e+09
 1.10078485e+09 1.10078491e+09 1.10078496e+09 1.10078501e+09
 1.10078507e+09 1.10078512e+09 1.10078518e+09 1.10078523e+09
 1.10078528e+09 1.10078534e+09 1.10078539e+09 1.10078545e+09
 1.10078550e+09 1.10078555e+09 1.10078561e+09 1.10078566e+09
 1.10078571e+09 1.10078577e+09 1.10078582e+09 1.10078588e+09
 1.10078593e+09 1.10078598e+09 1.10078604e+09 1.10078609e+09
 1.10078615e+09 1.10078620e+09 1.10078625e+09 1.10078631e+09
 1.10078636e+09 1.10078642e+09 1.10078647e+09 1.10078652e+09
 1.10078658e+09 1.10078663e+09 1.10078669e+09 1.10078674e+09
 1.10078679e+09 1.10078685e+09 1.10078690e+09 1.10078695e+09
 1.10078701e+09 1.10078706e+09 1.10078712e+09 1.10078717e+09
 1.10078722e+09 1.10078728e+09 1.10078733e+09 1.10078739e+09
 1.10078744e+09 1.10078749e+09 1.10078755e+09 1.10078760e+09
 1.10078766e+09 1.10078771e+09 1.10078776e+09 1.10078782e+09
 1.10078787e+09 1.10078792e+09 1.10078798e+09 1.10078803e+09
 1.10078809e+09 1.10078814e+09 1.10078819e+09 1.10078825e+09
 1.10078830e+09 1.10078836e+09 1.10078841e+09 1.10078846e+09
 1.10078852e+09 1.10078857e+09 1.10078863e+09 1.10078868e+09
 1.10078873e+09 1.10078879e+09 1.10078884e+09 1.10078890e+09
 1.10078895e+09 1.10078900e+09 1.10078906e+09 1.10078911e+09
 1.10078916e+09 1.10078922e+09 1.10078927e+09 1.10078933e+09
 1.10078938e+09 1.10078943e+09 1.10078949e+09 1.10078954e+09
 1.10078960e+09 1.10078965e+09 1.10078970e+09 1.10078976e+09
 1.10078981e+09 1.10078987e+09 1.10078992e+09 1.10078997e+09
 1.10079003e+09 1.10079008e+09 1.10079013e+09 1.10079019e+09
 1.10079024e+09 1.10079030e+09 1.10079035e+09 1.10079040e+09
 1.10079046e+09 1.10079051e+09 1.10079057e+09 1.10079062e+09
 1.10079067e+09 1.10079073e+09 1.10079078e+09 1.10079084e+09
 1.10079089e+09 1.10079094e+09 1.10079100e+09 1.10079105e+09
 1.10079111e+09 1.10079116e+09 1.10079121e+09 1.10079127e+09
 1.10079132e+09 1.10079137e+09 1.10079143e+09 1.10079148e+09
