name =JUICE_ROI_GAN_4_5_01
flyby = ['2034 JUL 11 19:50:31', '2034 JUL 12 19:50:31']
Observation TW = <SpiceCell dtype = 1, length = 0, size = 3400, card = 14, is_set = 1, adjust = 0, init = 1, base = 94635000702832, data = 94635000702880>
Res(t) = [2.01750883 2.01778229 2.01805713 2.01833336 2.01861096 2.01888994
 2.01917029 2.01945202 2.01973511 2.02001958 2.02030542 2.02059262
 2.02088119 2.02117112 2.02146242 2.02175507 2.02204909 2.02234446
 2.02264118 2.02293926 2.0232387  2.02353948 2.02384161 2.02414509
 2.02444992 2.02475609 2.0250636  2.02537245 2.02568264 2.02599417
 2.02630703 2.02662123 2.02693676 2.02725362 2.02757181 2.02789133
 2.02821217 2.02853434 2.02885783 2.02918264 2.02950877 2.02983621
 2.03016497 2.03049504 2.03082643 2.03115912 2.03149313 2.03182844
 2.03216505 2.03250297 2.03284219 2.0331827  2.03352452 2.03386763
 2.03421204 2.03455774 2.03490473 2.035253   2.03560257 2.03595342
 2.03630555 2.03665897 2.03701366 2.03736964 2.03772689 2.03808541
 2.03844521 2.03880627 2.03916861 2.03953221 2.03989708 2.04026322
 2.04063061 2.04099926 2.04136918 2.04174034 2.04211277 2.04248644
 2.04286137 2.04323754 2.04361496 2.04399363 2.04437354 2.04475469
 2.04513708 2.0455207  2.04590557 2.04629166 2.04667899 2.04706755
 2.04745733 2.04784834 2.04824058 2.04863404 2.04902872 2.04942462
 2.04982173 2.05022006 2.0506196  2.05102035 2.05142231 2.05182548
 2.05222985 2.05263542 2.0530422  2.05345017 2.05385935 2.05426971
 2.05468127 2.05509402 2.05550797 2.05592309 2.05633941 2.0567569
 2.05717558 2.05759544 2.05801647 2.05843868 2.05886207 2.05928662
 2.05971235 2.06013924 2.06056729 2.06099651 2.06142689 2.06185844
 2.06229113 2.06272499 2.06315999 2.06359615 2.06403346 2.06447191
 2.06491151 2.06535225 2.06579413 2.06623716 2.06668132 2.06712661
 2.06757304 2.06802059 2.06846928 2.06891909 2.06937003 2.06982209
 2.07027527 2.07072956 2.07118498 2.07164151 2.07209915 2.0725579
 2.07301776 2.07347872 2.07394079 2.07440396 2.07486822 2.07533359
 2.07580005 2.0762676  2.07673625 2.07720598 2.0776768  2.07814871
 2.0786217  2.07909577 2.07957091 2.08004713 2.08052443 2.0810028
 2.08148224 2.08196274 2.08244431 2.08292695 2.08341064 2.0838954
 2.08438121 2.08486807 2.08535599 2.08584496 2.08633497 2.08682604
 2.08731814 2.08781129 2.08830547 2.0888007  2.08929696 2.08979425
 2.09029257 2.09079192 2.0912923  2.0917937  2.09229612 2.09279956
 2.09330402 2.0938095  2.09431599 2.09482348 2.09533199 2.0958415
 2.09635202 2.09686354 2.09737606 2.09788958 2.09840409 2.09891959
 2.09943609 2.09995357 2.10047204 2.1009915  2.10151193 2.10203335
 2.10255574 2.10307911 2.10360345 2.10412876 2.10465504 2.10518228
 2.10571049 2.10623966 2.10676979 2.10730088 2.10783292 2.10836591
 2.10889986 2.10943475 2.10997059 2.11050737 2.11104509 2.11158375
 2.11212334 2.11266387 2.11320534 2.11374773 2.11429105 2.11483529
 2.11538046 2.11592655 2.11647355 2.11702147 2.11757031 2.11812005
 2.11867071 2.11922227 2.11977473 2.1203281  2.12088236 2.12143753
 2.12199358 2.12255054 2.12310838 2.12366711 2.12422672 2.12478722
 2.1253486  2.12591085 2.12647399 2.127038   2.12760287 2.12816862
 2.12873524 2.12930272 2.12987106 2.13044026 2.13101032 2.13158123
 2.132153   2.13272562 2.13329908 2.1338734  2.13444855 2.13502455
 2.13560138 2.13617905 2.13675756 2.13733689 2.13791706 2.13849805
 2.13907987 2.1396625  2.14024596 2.14083024 2.14141533 2.14200123
 2.14258794 2.14317547 2.14376379 2.14435292 2.14494285 2.14553358
 2.1461251  2.14671742 2.14731053 2.14790443 2.14849911 2.14909458
 2.14969083 2.15028786 2.15088566 2.15148424 2.15208359 2.15268371
 2.1532846  2.15388625 2.15448867 2.15509184 2.15569577 2.15630046
 2.1569059  2.15751209 2.15811903 2.15872671 2.15933514 2.15994431
 2.16055421 2.16116486 2.16177623 2.16238834 2.16300117 2.16361473
 2.16422901 2.16484402 2.16545974 2.16607619 2.16669334 2.16731121
 2.16792978 2.16854906 2.16916905 2.16978974 2.17041113 2.17103321
 2.17165599 2.17227946 2.17290363 2.17352848 2.17415401 2.17478023
 2.17540712 2.1760347  2.17666294 2.17729187 2.17792146 2.17855172
 2.17918264 2.17981423 2.18044648 2.18107939 2.18171295 2.18234717
 2.18298203 2.18361755 2.18425371 2.18489051 2.18552796 2.18616604
 2.18680476 2.18744412 2.1880841  2.18872471 2.18936595 2.19000782
 2.1906503  2.19129341 2.19193713 2.19258146 2.19322641 2.19387197
 2.19451813 2.1951649  2.19581226 2.19646023 2.1971088  2.19775796
 2.19840771 2.19905805 2.19970898 2.20036049 2.20101259 2.20166527
 2.20231852 2.20297235 2.20362675 2.20428172 2.20493726 2.20559336
 2.20625003 2.20690725 2.20756504 2.20822338 2.20888227 2.20954171
 2.21020171 2.21086224 2.21152332 2.21218494 2.2128471  2.2135098
 2.21417302 2.21483678 2.21550107 2.21616588 2.21683122 2.21749708
 2.21816345 2.21883035 2.21949775 2.22016567 2.2208341  2.22150303
 2.22217247 2.22284241 2.22351285 2.22418378 2.22485521 2.22552713
 2.22619954 2.22687244 2.22754582 2.22821968 2.22889402 2.22956884
 2.23024414 2.2309199  2.23159614 2.23227284 2.23295001 2.23362764
 2.23430573 2.23498428 2.23566329 2.23634274 2.23702265 2.23770301
 2.23838381 2.23906505 2.23974673 2.24042886 2.24111141 2.2417944
 2.24247783 2.24316168 2.24384595 2.24453065 2.24521577 2.24590131
 2.24658727 2.24727364 2.24796042 2.24864761 2.24933521 2.25002321
 2.25071161 2.25140041 2.25208961 2.25277921 2.25346919 2.25415957
 2.25485033 2.25554148 2.256233   2.25692491 2.2576172  2.25830986
 2.2590029  2.2596963  2.26039008 2.26108422 2.26177872 2.26247358
 2.2631688  2.26386438 2.26456031 2.26525659 2.26595322 2.2666502
 2.26734752 2.26804518 2.26874318 2.26944152 2.27014019 2.2708392
 2.27153853 2.27223819 2.27293818 2.27363849 2.27433912 2.27504006
 2.27574133 2.2764429  2.27714478 2.27784698 2.27854948 2.27925228
 2.27995538 2.28065878 2.28136248 2.28206647 2.28277076 2.28347533
 2.28418019 2.28488533 2.28559076 2.28629647 2.28700245 2.28770871
 2.28841524 2.28912204 2.28982911 2.29053644 2.29124404 2.2919519
 2.29266002 2.29336839 2.29407702 2.2947859  2.29549502 2.2962044
 2.29691402 2.29762388 2.29833398 2.29904432 2.29975489 2.3004657
 2.30117674 2.301888   2.30259949 2.30331121 2.30402315 2.3047353
 2.30544767 2.30616026 2.30687305 2.30758606 2.30829928 2.3090127
 2.30972632 2.31044014 2.31115416 2.31186838 2.31258279 2.31329739
 2.31401218 2.31472716 2.31544232 2.31615766 2.31687318 2.31758888
 2.31830476 2.31902081 2.31973703 2.32045341 2.32116997 2.32188668
 2.32260356 2.3233206  2.32403779 2.32475514 2.32547265 2.3261903
 2.3269081  2.32762604 2.32834413 2.32906236 2.32978073 2.33049924
 2.33121788 2.33193665 2.33265555 2.33337458 2.33409374 2.33481302
 2.33553242 2.33625194 2.33697157 2.33769132 2.33841118 2.33913115
 2.33985123 2.34057142 2.3412917  2.34201209 2.34273258 2.34345316
 2.34417384 2.34489461 2.34561547 2.34633642 2.34705745 2.34777857
 2.34849977 2.34922104 2.3499424  2.35066382 2.35138532 2.3521069
 2.35282853 2.35355024 2.35427201 2.35499384 2.35571573 2.35643767
 2.35715967 2.35788173 2.35860383 2.35932599 2.36004819 2.36077043
 2.36149272 2.36221505 2.36293741 2.36365981 2.36438224 2.36510471
 2.3658272  2.36654972 2.36727227 2.36799484 2.36871743 2.36944004
 2.37016266 2.3708853  2.37160795 2.37233062 2.37305329 2.37377596
 2.37449864 2.37522133 2.37594401 2.37666669 2.37738936 2.37811203
 2.37883469 2.37955734 2.38027997 2.3810026  2.3817252  2.38244778
 2.38317035 2.38389289 2.38461541 2.38533789 2.38606035 2.38678278
 2.38750517 2.38822753 2.38894985 2.38967214 2.39039438 2.39111657
 2.39183872 2.39256083 2.39328288 2.39400488 2.39472683 2.39544872
 2.39617055 2.39689233 2.39761404 2.39833569 2.39905727 2.39977879
 2.40050023 2.4012216  2.4019429  2.40266412 2.40338527 2.40410634
 2.40482732 2.40554822 2.40626903 2.40698976 2.4077104  2.40843094
 2.40915139 2.40987175 2.41059201 2.41131217 2.41203223 2.41275218
 2.41347203 2.41419177 2.4149114  2.41563092 2.41635033 2.41706962
 2.4177888  2.41850786 2.41922679 2.41994561 2.4206643  2.42138286
 2.4221013  2.4228196  2.42353777 2.42425581 2.42497371 2.42569148
 2.4264091  2.42712658 2.42784392 2.42856111 2.42927816 2.42999506
 2.4307118  2.4314284  2.43214484 2.43286112 2.43357724 2.4342932
 2.435009   2.43572464 2.43644011 2.43715542 2.43787055 2.43858551
 2.4393003  2.44001492 2.44072935 2.44144361 2.44215769 2.44287158
 2.4435853  2.44429882 2.44501216 2.44572531 2.44643827 2.44715103
 2.4478636  2.44857597 2.44928815 2.45000012 2.45071189 2.45142346
 2.45213482 2.45284598 2.45355693 2.45426766 2.45497818 2.45568849
 2.45639859 2.45710846 2.45781812 2.45852755 2.45923676 2.45994575
 2.46065451 2.46136304 2.46207134 2.46277941 2.46348724 2.46419485
 2.46490221 2.46560934 2.46631622 2.46702287 2.46772927 2.46843542
 2.46914133 2.46984699 2.4705524  2.47125755 2.47196246 2.4726671
 2.4733715  2.47407563 2.4747795  2.47548311 2.47618646 2.47688954
 2.47759235 2.4782949  2.47899717 2.47969918 2.48040091 2.48110236
 2.48180354 2.48250444 2.48320506 2.4839054  2.48460545 2.48530523
 2.48600471 2.48670391 2.48740281 2.48810143 2.48879975 2.48949778
 2.49019551 2.49089295 2.49159008 2.49228692 2.49298345 2.49367968
 2.49437561 2.49507123 2.49576653 2.49646153 2.49715622 2.4978506
 2.49854466 2.4992384  2.49993183 2.50062493 2.50131772 2.50201019
 2.50270233 2.50339414 2.50408563 2.50477679 2.50546762 2.50615812
 2.50684829 2.50753812 2.50822762 2.50891678 2.5096056  2.51029408
 2.51098222 2.51167002 2.51235747 2.51304458 2.51373134 2.51441775
 2.5151038  2.51578951 2.51647487 2.51715987 2.51784451 2.5185288
 2.51921273 2.51989629 2.5205795  2.52126234 2.52194482 2.52262693
 2.52330867 2.52399005 2.52467105 2.52535169 2.52603195 2.52671184
 2.52739135 2.52807048 2.52874923 2.52942761 2.5301056  2.53078322
 2.53146044 2.53213729 2.53281374 2.53348981 2.53416549 2.53484077
 2.53551567 2.53619017 2.53686428 2.53753799 2.53821131 2.53888422
 2.53955674 2.54022885 2.54090056 2.54157187 2.54224277 2.54291327
 2.54358336 2.54425304 2.54492231 2.54559117 2.54625961 2.54692764
 2.54759526 2.54826246 2.54892924 2.5495956  2.55026154 2.55092706
 2.55159216 2.55225683 2.55292107 2.55358489 2.55424829 2.55491125
 2.55557378 2.55623588 2.55689755 2.55755879 2.55821959 2.55887995
 2.55953987 2.56019936 2.56085841 2.56151701 2.56217518 2.56283289
 2.56349017 2.564147   2.56480338 2.56545931 2.5661148  2.56676983
 2.56742441 2.56807854 2.56873222 2.56938544 2.5700382  2.5706905
 2.57134235 2.57199374 2.57264467 2.57329513 2.57394513 2.57459467
 2.57524374 2.57589235 2.57654049 2.57718816 2.57783536 2.57848209
 2.57912834 2.57977413 2.58041944 2.58106427 2.58170863 2.58235252
 2.58299592 2.58363884 2.58428129 2.58492325 2.58556473 2.58620573
 2.58684624 2.58748626 2.5881258  2.58876485 2.58940341 2.59004149
 2.59067907 2.59131616 2.59195276 2.59258886 2.59322447 2.59385958
 2.5944942  2.59512831 2.59576193 2.59639505 2.59702767 2.59765979
 2.5982914  2.59892251 2.59955312 2.60018322 2.60081281 2.60144189
 2.60207047 2.60269854 2.60332609 2.60395314 2.60457967 2.60520569
 2.6058312  2.60645619 2.60708066 2.60770462 2.60832806 2.60895098
 2.60957338 2.61019526 2.61081662 2.61143745 2.61205777 2.61267756
 2.61329682 2.61391556 2.61453377 2.61515145 2.6157686  2.61638523
 2.61700132 2.61761689 2.61823192 2.61884642 2.61946038 2.62007381
 2.62068671 2.62129906 2.62191088 2.62252217 2.62313291 2.62374312
 2.62435278 2.6249619  2.62557048 2.62617852 2.62678602 2.62739297
 2.62799937 2.62860523 2.62921054 2.6298153 ]
t = [1.08957235e+09 1.08957240e+09 1.08957244e+09 1.08957249e+09
 1.08957254e+09 1.08957258e+09 1.08957263e+09 1.08957267e+09
 1.08957272e+09 1.08957277e+09 1.08957281e+09 1.08957286e+09
 1.08957291e+09 1.08957295e+09 1.08957300e+09 1.08957305e+09
 1.08957309e+09 1.08957314e+09 1.08957319e+09 1.08957323e+09
 1.08957328e+09 1.08957332e+09 1.08957337e+09 1.08957342e+09
 1.08957346e+09 1.08957351e+09 1.08957356e+09 1.08957360e+09
 1.08957365e+09 1.08957370e+09 1.08957374e+09 1.08957379e+09
 1.08957383e+09 1.08957388e+09 1.08957393e+09 1.08957397e+09
 1.08957402e+09 1.08957407e+09 1.08957411e+09 1.08957416e+09
 1.08957421e+09 1.08957425e+09 1.08957430e+09 1.08957435e+09
 1.08957439e+09 1.08957444e+09 1.08957448e+09 1.08957453e+09
 1.08957458e+09 1.08957462e+09 1.08957467e+09 1.08957472e+09
 1.08957476e+09 1.08957481e+09 1.08957486e+09 1.08957490e+09
 1.08957495e+09 1.08957499e+09 1.08957504e+09 1.08957509e+09
 1.08957513e+09 1.08957518e+09 1.08957523e+09 1.08957527e+09
 1.08957532e+09 1.08957537e+09 1.08957541e+09 1.08957546e+09
 1.08957551e+09 1.08957555e+09 1.08957560e+09 1.08957564e+09
 1.08957569e+09 1.08957574e+09 1.08957578e+09 1.08957583e+09
 1.08957588e+09 1.08957592e+09 1.08957597e+09 1.08957602e+09
 1.08957606e+09 1.08957611e+09 1.08957615e+09 1.08957620e+09
 1.08957625e+09 1.08957629e+09 1.08957634e+09 1.08957639e+09
 1.08957643e+09 1.08957648e+09 1.08957653e+09 1.08957657e+09
 1.08957662e+09 1.08957667e+09 1.08957671e+09 1.08957676e+09
 1.08957680e+09 1.08957685e+09 1.08957690e+09 1.08957694e+09
 1.08957699e+09 1.08957704e+09 1.08957708e+09 1.08957713e+09
 1.08957718e+09 1.08957722e+09 1.08957727e+09 1.08957731e+09
 1.08957736e+09 1.08957741e+09 1.08957745e+09 1.08957750e+09
 1.08957755e+09 1.08957759e+09 1.08957764e+09 1.08957769e+09
 1.08957773e+09 1.08957778e+09 1.08957782e+09 1.08957787e+09
 1.08957792e+09 1.08957796e+09 1.08957801e+09 1.08957806e+09
 1.08957810e+09 1.08957815e+09 1.08957820e+09 1.08957824e+09
 1.08957829e+09 1.08957834e+09 1.08957838e+09 1.08957843e+09
 1.08957847e+09 1.08957852e+09 1.08957857e+09 1.08957861e+09
 1.08957866e+09 1.08957871e+09 1.08957875e+09 1.08957880e+09
 1.08957885e+09 1.08957889e+09 1.08957894e+09 1.08957898e+09
 1.08957903e+09 1.08957908e+09 1.08957912e+09 1.08957917e+09
 1.08957922e+09 1.08957926e+09 1.08957931e+09 1.08957936e+09
 1.08957940e+09 1.08957945e+09 1.08957950e+09 1.08957954e+09
 1.08957959e+09 1.08957963e+09 1.08957968e+09 1.08957973e+09
 1.08957977e+09 1.08957982e+09 1.08957987e+09 1.08957991e+09
 1.08957996e+09 1.08958001e+09 1.08958005e+09 1.08958010e+09
 1.08958014e+09 1.08958019e+09 1.08958024e+09 1.08958028e+09
 1.08958033e+09 1.08958038e+09 1.08958042e+09 1.08958047e+09
 1.08958052e+09 1.08958056e+09 1.08958061e+09 1.08958066e+09
 1.08958070e+09 1.08958075e+09 1.08958079e+09 1.08958084e+09
 1.08958089e+09 1.08958093e+09 1.08958098e+09 1.08958103e+09
 1.08958107e+09 1.08958112e+09 1.08958117e+09 1.08958121e+09
 1.08958126e+09 1.08958130e+09 1.08958135e+09 1.08958140e+09
 1.08958144e+09 1.08958149e+09 1.08958154e+09 1.08958158e+09
 1.08958163e+09 1.08958168e+09 1.08958172e+09 1.08958177e+09
 1.08958182e+09 1.08958186e+09 1.08958191e+09 1.08958195e+09
 1.08958200e+09 1.08958205e+09 1.08958209e+09 1.08958214e+09
 1.08958219e+09 1.08958223e+09 1.08958228e+09 1.08958233e+09
 1.08958237e+09 1.08958242e+09 1.08958246e+09 1.08958251e+09
 1.08958256e+09 1.08958260e+09 1.08958265e+09 1.08958270e+09
 1.08958274e+09 1.08958279e+09 1.08958284e+09 1.08958288e+09
 1.08958293e+09 1.08958297e+09 1.08958302e+09 1.08958307e+09
 1.08958311e+09 1.08958316e+09 1.08958321e+09 1.08958325e+09
 1.08958330e+09 1.08958335e+09 1.08958339e+09 1.08958344e+09
 1.08958349e+09 1.08958353e+09 1.08958358e+09 1.08958362e+09
 1.08958367e+09 1.08958372e+09 1.08958376e+09 1.08958381e+09
 1.08958386e+09 1.08958390e+09 1.08958395e+09 1.08958400e+09
 1.08958404e+09 1.08958409e+09 1.08958413e+09 1.08958418e+09
 1.08958423e+09 1.08958427e+09 1.08958432e+09 1.08958437e+09
 1.08958441e+09 1.08958446e+09 1.08958451e+09 1.08958455e+09
 1.08958460e+09 1.08958465e+09 1.08958469e+09 1.08958474e+09
 1.08958478e+09 1.08958483e+09 1.08958488e+09 1.08958492e+09
 1.08958497e+09 1.08958502e+09 1.08958506e+09 1.08958511e+09
 1.08958516e+09 1.08958520e+09 1.08958525e+09 1.08958529e+09
 1.08958534e+09 1.08958539e+09 1.08958543e+09 1.08958548e+09
 1.08958553e+09 1.08958557e+09 1.08958562e+09 1.08958567e+09
 1.08958571e+09 1.08958576e+09 1.08958581e+09 1.08958585e+09
 1.08958590e+09 1.08958594e+09 1.08958599e+09 1.08958604e+09
 1.08958608e+09 1.08958613e+09 1.08958618e+09 1.08958622e+09
 1.08958627e+09 1.08958632e+09 1.08958636e+09 1.08958641e+09
 1.08958645e+09 1.08958650e+09 1.08958655e+09 1.08958659e+09
 1.08958664e+09 1.08958669e+09 1.08958673e+09 1.08958678e+09
 1.08958683e+09 1.08958687e+09 1.08958692e+09 1.08958697e+09
 1.08958701e+09 1.08958706e+09 1.08958710e+09 1.08958715e+09
 1.08958720e+09 1.08958724e+09 1.08958729e+09 1.08958734e+09
 1.08958738e+09 1.08958743e+09 1.08958748e+09 1.08958752e+09
 1.08958757e+09 1.08958761e+09 1.08958766e+09 1.08958771e+09
 1.08958775e+09 1.08958780e+09 1.08958785e+09 1.08958789e+09
 1.08958794e+09 1.08958799e+09 1.08958803e+09 1.08958808e+09
 1.08958812e+09 1.08958817e+09 1.08958822e+09 1.08958826e+09
 1.08958831e+09 1.08958836e+09 1.08958840e+09 1.08958845e+09
 1.08958850e+09 1.08958854e+09 1.08958859e+09 1.08958864e+09
 1.08958868e+09 1.08958873e+09 1.08958877e+09 1.08958882e+09
 1.08958887e+09 1.08958891e+09 1.08958896e+09 1.08958901e+09
 1.08958905e+09 1.08958910e+09 1.08958915e+09 1.08958919e+09
 1.08958924e+09 1.08958928e+09 1.08958933e+09 1.08958938e+09
 1.08958942e+09 1.08958947e+09 1.08958952e+09 1.08958956e+09
 1.08958961e+09 1.08958966e+09 1.08958970e+09 1.08958975e+09
 1.08958980e+09 1.08958984e+09 1.08958989e+09 1.08958993e+09
 1.08958998e+09 1.08959003e+09 1.08959007e+09 1.08959012e+09
 1.08959017e+09 1.08959021e+09 1.08959026e+09 1.08959031e+09
 1.08959035e+09 1.08959040e+09 1.08959044e+09 1.08959049e+09
 1.08959054e+09 1.08959058e+09 1.08959063e+09 1.08959068e+09
 1.08959072e+09 1.08959077e+09 1.08959082e+09 1.08959086e+09
 1.08959091e+09 1.08959096e+09 1.08959100e+09 1.08959105e+09
 1.08959109e+09 1.08959114e+09 1.08959119e+09 1.08959123e+09
 1.08959128e+09 1.08959133e+09 1.08959137e+09 1.08959142e+09
 1.08959147e+09 1.08959151e+09 1.08959156e+09 1.08959160e+09
 1.08959165e+09 1.08959170e+09 1.08959174e+09 1.08959179e+09
 1.08959184e+09 1.08959188e+09 1.08959193e+09 1.08959198e+09
 1.08959202e+09 1.08959207e+09 1.08959212e+09 1.08959216e+09
 1.08959221e+09 1.08959225e+09 1.08959230e+09 1.08959235e+09
 1.08959239e+09 1.08959244e+09 1.08959249e+09 1.08959253e+09
 1.08959258e+09 1.08959263e+09 1.08959267e+09 1.08959272e+09
 1.08959276e+09 1.08959281e+09 1.08959286e+09 1.08959290e+09
 1.08959295e+09 1.08959300e+09 1.08959304e+09 1.08959309e+09
 1.08959314e+09 1.08959318e+09 1.08959323e+09 1.08959327e+09
 1.08959332e+09 1.08959337e+09 1.08959341e+09 1.08959346e+09
 1.08959351e+09 1.08959355e+09 1.08959360e+09 1.08959365e+09
 1.08959369e+09 1.08959374e+09 1.08959379e+09 1.08959383e+09
 1.08959388e+09 1.08959392e+09 1.08959397e+09 1.08959402e+09
 1.08959406e+09 1.08959411e+09 1.08959416e+09 1.08959420e+09
 1.08959425e+09 1.08959430e+09 1.08959434e+09 1.08959439e+09
 1.08959443e+09 1.08959448e+09 1.08959453e+09 1.08959457e+09
 1.08959462e+09 1.08959467e+09 1.08959471e+09 1.08959476e+09
 1.08959481e+09 1.08959485e+09 1.08959490e+09 1.08959495e+09
 1.08959499e+09 1.08959504e+09 1.08959508e+09 1.08959513e+09
 1.08959518e+09 1.08959522e+09 1.08959527e+09 1.08959532e+09
 1.08959536e+09 1.08959541e+09 1.08959546e+09 1.08959550e+09
 1.08959555e+09 1.08959559e+09 1.08959564e+09 1.08959569e+09
 1.08959573e+09 1.08959578e+09 1.08959583e+09 1.08959587e+09
 1.08959592e+09 1.08959597e+09 1.08959601e+09 1.08959606e+09
 1.08959611e+09 1.08959615e+09 1.08959620e+09 1.08959624e+09
 1.08959629e+09 1.08959634e+09 1.08959638e+09 1.08959643e+09
 1.08959648e+09 1.08959652e+09 1.08959657e+09 1.08959662e+09
 1.08959666e+09 1.08959671e+09 1.08959675e+09 1.08959680e+09
 1.08959685e+09 1.08959689e+09 1.08959694e+09 1.08959699e+09
 1.08959703e+09 1.08959708e+09 1.08959713e+09 1.08959717e+09
 1.08959722e+09 1.08959727e+09 1.08959731e+09 1.08959736e+09
 1.08959740e+09 1.08959745e+09 1.08959750e+09 1.08959754e+09
 1.08959759e+09 1.08959764e+09 1.08959768e+09 1.08959773e+09
 1.08959778e+09 1.08959782e+09 1.08959787e+09 1.08959791e+09
 1.08959796e+09 1.08959801e+09 1.08959805e+09 1.08959810e+09
 1.08959815e+09 1.08959819e+09 1.08959824e+09 1.08959829e+09
 1.08959833e+09 1.08959838e+09 1.08959842e+09 1.08959847e+09
