name =JUICE_ROI_GAN_6_3_12
flyby = ['2034 SEP 07 06:03:51', '2034 SEP 08 06:03:51']
Observation TW = <SpiceCell dtype = 1, length = 0, size = 3200, card = 12, is_set = 1, adjust = 0, init = 1, base = 94117971260640, data = 94117971260688>
Res(t) = [1.11212083 1.11237122 1.11262197 1.1128731  1.1131246  1.11337646
 1.11362869 1.11388128 1.11413424 1.11438757 1.11464126 1.11489531
 1.11514972 1.11540449 1.11565963 1.11591512 1.11617098 1.11642719
 1.11668377 1.11694069 1.11719798 1.11745562 1.11771362 1.11797197
 1.11823067 1.11848973 1.11874914 1.11900891 1.11926902 1.11952948
 1.1197903  1.12005146 1.12031297 1.12057483 1.12083703 1.12109958
 1.12136248 1.12162572 1.1218893  1.12215323 1.1224175  1.12268211
 1.12294706 1.12321235 1.12347799 1.12374396 1.12401027 1.12427692
 1.1245439  1.12481122 1.12507888 1.12534687 1.12561519 1.12588385
 1.12615284 1.12642216 1.12669182 1.1269618  1.12723211 1.12750276
 1.12777373 1.12804503 1.12831665 1.1285886  1.12886088 1.12913348
 1.12940641 1.12967966 1.12995323 1.13022712 1.13050134 1.13077587
 1.13105073 1.1313259  1.1316014  1.13187721 1.13215333 1.13242978
 1.13270654 1.13298361 1.133261   1.1335387  1.13381671 1.13409504
 1.13437368 1.13465263 1.13493188 1.13521145 1.13549133 1.13577151
 1.136052   1.13633279 1.1366139  1.1368953  1.13717701 1.13745903
 1.13774134 1.13802396 1.13830688 1.1385901  1.13887362 1.13915744
 1.13944156 1.13972598 1.14001069 1.1402957  1.14058101 1.14086661
 1.1411525  1.14143869 1.14172517 1.14201194 1.142299   1.14258636
 1.142874   1.14316193 1.14345016 1.14373866 1.14402746 1.14431654
 1.14460591 1.14489557 1.1451855  1.14547572 1.14576623 1.14605701
 1.14634808 1.14663943 1.14693106 1.14722297 1.14751515 1.14780761
 1.14810036 1.14839337 1.14868667 1.14898023 1.14927408 1.14956819
 1.14986258 1.15015724 1.15045217 1.15074737 1.15104285 1.15133859
 1.1516346  1.15193088 1.15222742 1.15252424 1.15282132 1.15311866
 1.15341627 1.15371414 1.15401227 1.15431067 1.15460933 1.15490824
 1.15520742 1.15550686 1.15580656 1.15610651 1.15640672 1.15670719
 1.15700792 1.1573089  1.15761013 1.15791162 1.15821336 1.15851535
 1.1588176  1.15912009 1.15942284 1.15972584 1.16002908 1.16033257
 1.16063631 1.1609403  1.16124453 1.16154901 1.16185373 1.1621587
 1.16246391 1.16276936 1.16307506 1.16338099 1.16368717 1.16399358
 1.16430024 1.16460713 1.16491426 1.16522162 1.16552923 1.16583707
 1.16614514 1.16645345 1.16676199 1.16707076 1.16737977 1.167689
 1.16799847 1.16830817 1.16861809 1.16892825 1.16923863 1.16954924
 1.16986008 1.17017114 1.17048243 1.17079394 1.17110567 1.17141763
 1.17172981 1.17204221 1.17235483 1.17266768 1.17298074 1.17329402
 1.17360752 1.17392123 1.17423517 1.17454931 1.17486368 1.17517826
 1.17549305 1.17580805 1.17612327 1.1764387  1.17675434 1.1770702
 1.17738626 1.17770253 1.17801901 1.17833569 1.17865259 1.17896969
 1.17928699 1.1796045  1.17992222 1.18024013 1.18055826 1.18087658
 1.1811951  1.18151383 1.18183276 1.18215188 1.1824712  1.18279073
 1.18311045 1.18343036 1.18375047 1.18407078 1.18439128 1.18471198
 1.18503287 1.18535395 1.18567523 1.18599669 1.18631835 1.18664019
 1.18696223 1.18728445 1.18760686 1.18792946 1.18825225 1.18857522
 1.18889837 1.18922171 1.18954524 1.18986895 1.19019284 1.19051691
 1.19084116 1.19116559 1.19149021 1.191815   1.19213997 1.19246512
 1.19279044 1.19311594 1.19344162 1.19376747 1.1940935  1.1944197
 1.19474607 1.19507262 1.19539934 1.19572623 1.19605329 1.19638051
 1.19670791 1.19703548 1.19736321 1.19769111 1.19801918 1.19834741
 1.19867581 1.19900437 1.1993331  1.19966199 1.19999104 1.20032025
 1.20064963 1.20097916 1.20130886 1.20163871 1.20196872 1.20229889
 1.20262922 1.2029597  1.20329034 1.20362113 1.20395208 1.20428318
 1.20461444 1.20494585 1.20527741 1.20560912 1.20594098 1.20627299
 1.20660515 1.20693746 1.20726992 1.20760252 1.20793527 1.20826817
 1.20860121 1.2089344  1.20926773 1.2096012  1.20993482 1.21026858
 1.21060248 1.21093652 1.2112707  1.21160503 1.21193949 1.21227408
 1.21260882 1.21294369 1.2132787  1.21361384 1.21394912 1.21428454
 1.21462009 1.21495577 1.21529158 1.21562752 1.2159636  1.21629981
 1.21663614 1.21697261 1.2173092  1.21764593 1.21798277 1.21831975
 1.21865685 1.21899408 1.21933143 1.21966891 1.22000651 1.22034423
 1.22068208 1.22102005 1.22135813 1.22169634 1.22203467 1.22237312
 1.22271168 1.22305037 1.22338917 1.22372809 1.22406712 1.22440627
 1.22474553 1.22508491 1.2254244  1.22576401 1.22610372 1.22644355
 1.22678349 1.22712354 1.2274637  1.22780397 1.22814435 1.22848483
 1.22882542 1.22916612 1.22950693 1.22984784 1.23018885 1.23052997
 1.2308712  1.23121252 1.23155395 1.23189548 1.23223711 1.23257885
 1.23292068 1.23326261 1.23360464 1.23394677 1.234289   1.23463132
 1.23497374 1.23531625 1.23565886 1.23600157 1.23634437 1.23668726
 1.23703024 1.23737332 1.23771649 1.23805975 1.2384031  1.23874654
 1.23909006 1.23943368 1.23977738 1.24012118 1.24046506 1.24080902
 1.24115307 1.24149721 1.24184142 1.24218573 1.24253011 1.24287458
 1.24321913 1.24356377 1.24390848 1.24425327 1.24459815 1.2449431
 1.24528813 1.24563324 1.24597842 1.24632368 1.24666902 1.24701444
 1.24735993 1.24770549 1.24805113 1.24839684 1.24874262 1.24908847
 1.2494344  1.2497804  1.25012646 1.2504726  1.25081881 1.25116508
 1.25151143 1.25185784 1.25220431 1.25255086 1.25289747 1.25324414
 1.25359088 1.25393768 1.25428455 1.25463148 1.25497847 1.25532552
 1.25567264 1.25601981 1.25636705 1.25671434 1.2570617  1.25740911
 1.25775658 1.25810411 1.25845169 1.25879933 1.25914703 1.25949478
 1.25984258 1.26019044 1.26053835 1.26088632 1.26123433 1.2615824
 1.26193052 1.26227869 1.26262691 1.26297518 1.2633235  1.26367187
 1.26402028 1.26436874 1.26471725 1.26506581 1.26541441 1.26576305
 1.26611174 1.26646048 1.26680926 1.26715808 1.26750694 1.26785584
 1.26820479 1.26855378 1.2689028  1.26925187 1.26960098 1.26995012
 1.2702993  1.27064852 1.27099778 1.27134707 1.2716964  1.27204577
 1.27239517 1.2727446  1.27309407 1.27344357 1.2737931  1.27414267
 1.27449227 1.27484189 1.27519155 1.27554124 1.27589096 1.27624071
 1.27659049 1.27694029 1.27729012 1.27763998 1.27798987 1.27833978
 1.27868971 1.27903968 1.27938966 1.27973967 1.28008971 1.28043976
 1.28078984 1.28113994 1.28149006 1.28184021 1.28219037 1.28254055
 1.28289075 1.28324097 1.28359121 1.28394147 1.28429174 1.28464203
 1.28499234 1.28534266 1.285693   1.28604335 1.28639372 1.2867441
 1.28709449 1.2874449  1.28779532 1.28814575 1.28849619 1.28884664
 1.2891971  1.28954758 1.28989806 1.29024855 1.29059905 1.29094955
 1.29130007 1.29165059 1.29200111 1.29235165 1.29270218 1.29305273
 1.29340327 1.29375382 1.29410438 1.29445494 1.2948055  1.29515606
 1.29550662 1.29585718 1.29620775 1.29655831 1.29690888 1.29725944
 1.29761    1.29796056 1.29831112 1.29866168 1.29901223 1.29936278
 1.29971332 1.30006386 1.30041439 1.30076492 1.30111544 1.30146596
 1.30181647 1.30216697 1.30251746 1.30286794 1.30321842 1.30356889
 1.30391934 1.30426979 1.30462022 1.30497065 1.30532106 1.30567146
 1.30602185 1.30637222 1.30672259 1.30707293 1.30742327 1.30777358
 1.30812389 1.30847417 1.30882444 1.3091747  1.30952494 1.30987516
 1.31022536 1.31057554 1.3109257  1.31127585 1.31162597 1.31197608
 1.31232616 1.31267623 1.31302627 1.31337629 1.31372629 1.31407626
 1.31442621 1.31477614 1.31512604 1.31547592 1.31582577 1.3161756
 1.3165254  1.31687518 1.31722493 1.31757465 1.31792434 1.31827401
 1.31862365 1.31897326 1.31932284 1.31967239 1.3200219  1.32037139
 1.32072085 1.32107028 1.32141967 1.32176903 1.32211836 1.32246766
 1.32281692 1.32316615 1.32351535 1.32386451 1.32421363 1.32456272
 1.32491177 1.32526079 1.32560977 1.32595871 1.32630761 1.32665648
 1.32700531 1.3273541  1.32770285 1.32805156 1.32840023 1.32874886
 1.32909744 1.32944599 1.3297945  1.33014296 1.33049138 1.33083976
 1.33118809 1.33153638 1.33188463 1.33223283 1.33258099 1.3329291
 1.33327717 1.33362519 1.33397316 1.33432109 1.33466896 1.3350168
 1.33536458 1.33571231 1.33606    1.33640764 1.33675522 1.33710276
 1.33745025 1.33779769 1.33814507 1.3384924  1.33883969 1.33918692
 1.33953409 1.33988122 1.34022829 1.3405753  1.34092227 1.34126917
 1.34161603 1.34196282 1.34230957 1.34265625 1.34300288 1.34334946
 1.34369597 1.34404243 1.34438883 1.34473517 1.34508146 1.34542768
 1.34577385 1.34611995 1.346466   1.34681198 1.34715791 1.34750377
 1.34784957 1.34819531 1.34854099 1.3488866  1.34923216 1.34957764
 1.34992307 1.35026843 1.35061373 1.35095896 1.35130413 1.35164923
 1.35199427 1.35233924 1.35268414 1.35302898 1.35337375 1.35371845
 1.35406308 1.35440765 1.35475215 1.35509658 1.35544094 1.35578523
 1.35612945 1.3564736  1.35681768 1.35716169 1.35750562 1.35784949
 1.35819328 1.35853701 1.35888065 1.35922423 1.35956773 1.35991116
 1.36025452 1.3605978  1.36094101 1.36128414 1.3616272  1.36197018
 1.36231309 1.36265592 1.36299867 1.36334135 1.36368395 1.36402647
 1.36436891 1.36471128 1.36505357 1.36539578 1.36573791 1.36607996
 1.36642193 1.36676382 1.36710563 1.36744736 1.36778901 1.36813058
 1.36847206 1.36881347 1.36915479 1.36949603 1.36983719 1.37017826
 1.37051925 1.37086016 1.37120098 1.37154172 1.37188238 1.37222295
 1.37256343 1.37290383 1.37324414 1.37358437 1.37392451 1.37426457
 1.37460453 1.37494441 1.37528421 1.37562391 1.37596353 1.37630305
 1.37664249 1.37698184 1.37732111 1.37766028 1.37799936 1.37833835
 1.37867725 1.37901606 1.37935478 1.37969341 1.38003194 1.38037039
 1.38070874 1.381047   1.38138517 1.38172324 1.38206122 1.38239911
 1.38273691 1.38307461 1.38341221 1.38374972 1.38408714 1.38442446
 1.38476168 1.38509881 1.38543585 1.38577278 1.38610962 1.38644637
 1.38678302 1.38711957 1.38745602 1.38779237 1.38812863 1.38846479
 1.38880084 1.38913681 1.38947267 1.38980843 1.39014409 1.39047965
 1.39081511 1.39115048 1.39148574 1.3918209  1.39215596 1.39249091
 1.39282577 1.39316052 1.39349517 1.39382972 1.39416417 1.39449851
 1.39483275 1.39516689 1.39550092 1.39583485 1.39616868 1.3965024
 1.39683601 1.39716953 1.39750293 1.39783623 1.39816943 1.39850252
 1.3988355  1.39916838 1.39950115 1.39983381 1.40016637 1.40049882
 1.40083116 1.40116339 1.40149552 1.40182753 1.40215944 1.40249124
 1.40282294 1.40315452 1.40348599 1.40381736 1.40414861 1.40447975
 1.40481079 1.40514171 1.40547252 1.40580323 1.40613382 1.4064643
 1.40679466 1.40712492 1.40745506 1.40778509 1.40811501 1.40844482
 1.40877451 1.4091041  1.40943356 1.40976292 1.41009216 1.41042128
 1.4107503  1.41107919 1.41140798 1.41173665 1.4120652  1.41239364
 1.41272196 1.41305017 1.41337826 1.41370624 1.4140341  1.41436184
 1.41468947 1.41501698 1.41534437 1.41567165 1.41599881 1.41632585
 1.41665277 1.41697958 1.41730626 1.41763283 1.41795928 1.41828561
 1.41861183 1.41893792 1.41926389 1.41958975 1.41991548 1.4202411
 1.4205666  1.42089197 1.42121723 1.42154236 1.42186737 1.42219226
 1.42251704 1.42284169 1.42316621 1.42349062 1.42381491 1.42413907
 1.42446311 1.42478703 1.42511082 1.42543449 1.42575804 1.42608147
 1.42640477 1.42672795 1.42705101 1.42737394 1.42769675 1.42801944
 1.428342   1.42866443 1.42898674 1.42930893 1.42963099 1.42995293
 1.43027474 1.43059642 1.43091798 1.43123942 1.43156073 1.43188191
 1.43220296 1.43252389 1.4328447  1.43316537 1.43348592 1.43380634
 1.43412664 1.4344468  1.43476684 1.43508676 1.43540654 1.4357262
 1.43604573 1.43636513 1.4366844  1.43700354 1.43732256 1.43764144
 1.4379602  1.43827883 1.43859732 1.43891569]
t = [1.09454745e+09 1.09454748e+09 1.09454752e+09 1.09454755e+09
 1.09454758e+09 1.09454761e+09 1.09454765e+09 1.09454768e+09
 1.09454771e+09 1.09454775e+09 1.09454778e+09 1.09454781e+09
 1.09454784e+09 1.09454788e+09 1.09454791e+09 1.09454794e+09
 1.09454798e+09 1.09454801e+09 1.09454804e+09 1.09454807e+09
 1.09454811e+09 1.09454814e+09 1.09454817e+09 1.09454821e+09
 1.09454824e+09 1.09454827e+09 1.09454831e+09 1.09454834e+09
 1.09454837e+09 1.09454840e+09 1.09454844e+09 1.09454847e+09
 1.09454850e+09 1.09454854e+09 1.09454857e+09 1.09454860e+09
 1.09454863e+09 1.09454867e+09 1.09454870e+09 1.09454873e+09
 1.09454877e+09 1.09454880e+09 1.09454883e+09 1.09454886e+09
 1.09454890e+09 1.09454893e+09 1.09454896e+09 1.09454900e+09
 1.09454903e+09 1.09454906e+09 1.09454909e+09 1.09454913e+09
 1.09454916e+09 1.09454919e+09 1.09454923e+09 1.09454926e+09
 1.09454929e+09 1.09454932e+09 1.09454936e+09 1.09454939e+09
 1.09454942e+09 1.09454946e+09 1.09454949e+09 1.09454952e+09
 1.09454955e+09 1.09454959e+09 1.09454962e+09 1.09454965e+09
 1.09454969e+09 1.09454972e+09 1.09454975e+09 1.09454978e+09
 1.09454982e+09 1.09454985e+09 1.09454988e+09 1.09454992e+09
 1.09454995e+09 1.09454998e+09 1.09455002e+09 1.09455005e+09
 1.09455008e+09 1.09455011e+09 1.09455015e+09 1.09455018e+09
 1.09455021e+09 1.09455025e+09 1.09455028e+09 1.09455031e+09
 1.09455034e+09 1.09455038e+09 1.09455041e+09 1.09455044e+09
 1.09455048e+09 1.09455051e+09 1.09455054e+09 1.09455057e+09
 1.09455061e+09 1.09455064e+09 1.09455067e+09 1.09455071e+09
 1.09455074e+09 1.09455077e+09 1.09455080e+09 1.09455084e+09
 1.09455087e+09 1.09455090e+09 1.09455094e+09 1.09455097e+09
 1.09455100e+09 1.09455103e+09 1.09455107e+09 1.09455110e+09
 1.09455113e+09 1.09455117e+09 1.09455120e+09 1.09455123e+09
 1.09455126e+09 1.09455130e+09 1.09455133e+09 1.09455136e+09
 1.09455140e+09 1.09455143e+09 1.09455146e+09 1.09455149e+09
 1.09455153e+09 1.09455156e+09 1.09455159e+09 1.09455163e+09
 1.09455166e+09 1.09455169e+09 1.09455172e+09 1.09455176e+09
 1.09455179e+09 1.09455182e+09 1.09455186e+09 1.09455189e+09
 1.09455192e+09 1.09455196e+09 1.09455199e+09 1.09455202e+09
 1.09455205e+09 1.09455209e+09 1.09455212e+09 1.09455215e+09
 1.09455219e+09 1.09455222e+09 1.09455225e+09 1.09455228e+09
 1.09455232e+09 1.09455235e+09 1.09455238e+09 1.09455242e+09
 1.09455245e+09 1.09455248e+09 1.09455251e+09 1.09455255e+09
 1.09455258e+09 1.09455261e+09 1.09455265e+09 1.09455268e+09
 1.09455271e+09 1.09455274e+09 1.09455278e+09 1.09455281e+09
 1.09455284e+09 1.09455288e+09 1.09455291e+09 1.09455294e+09
 1.09455297e+09 1.09455301e+09 1.09455304e+09 1.09455307e+09
 1.09455311e+09 1.09455314e+09 1.09455317e+09 1.09455320e+09
 1.09455324e+09 1.09455327e+09 1.09455330e+09 1.09455334e+09
 1.09455337e+09 1.09455340e+09 1.09455343e+09 1.09455347e+09
 1.09455350e+09 1.09455353e+09 1.09455357e+09 1.09455360e+09
 1.09455363e+09 1.09455367e+09 1.09455370e+09 1.09455373e+09
 1.09455376e+09 1.09455380e+09 1.09455383e+09 1.09455386e+09
 1.09455390e+09 1.09455393e+09 1.09455396e+09 1.09455399e+09
 1.09455403e+09 1.09455406e+09 1.09455409e+09 1.09455413e+09
 1.09455416e+09 1.09455419e+09 1.09455422e+09 1.09455426e+09
 1.09455429e+09 1.09455432e+09 1.09455436e+09 1.09455439e+09
 1.09455442e+09 1.09455445e+09 1.09455449e+09 1.09455452e+09
 1.09455455e+09 1.09455459e+09 1.09455462e+09 1.09455465e+09
 1.09455468e+09 1.09455472e+09 1.09455475e+09 1.09455478e+09
 1.09455482e+09 1.09455485e+09 1.09455488e+09 1.09455491e+09
 1.09455495e+09 1.09455498e+09 1.09455501e+09 1.09455505e+09
 1.09455508e+09 1.09455511e+09 1.09455514e+09 1.09455518e+09
 1.09455521e+09 1.09455524e+09 1.09455528e+09 1.09455531e+09
 1.09455534e+09 1.09455537e+09 1.09455541e+09 1.09455544e+09
 1.09455547e+09 1.09455551e+09 1.09455554e+09 1.09455557e+09
 1.09455561e+09 1.09455564e+09 1.09455567e+09 1.09455570e+09
 1.09455574e+09 1.09455577e+09 1.09455580e+09 1.09455584e+09
 1.09455587e+09 1.09455590e+09 1.09455593e+09 1.09455597e+09
 1.09455600e+09 1.09455603e+09 1.09455607e+09 1.09455610e+09
 1.09455613e+09 1.09455616e+09 1.09455620e+09 1.09455623e+09
 1.09455626e+09 1.09455630e+09 1.09455633e+09 1.09455636e+09
 1.09455639e+09 1.09455643e+09 1.09455646e+09 1.09455649e+09
 1.09455653e+09 1.09455656e+09 1.09455659e+09 1.09455662e+09
 1.09455666e+09 1.09455669e+09 1.09455672e+09 1.09455676e+09
 1.09455679e+09 1.09455682e+09 1.09455685e+09 1.09455689e+09
 1.09455692e+09 1.09455695e+09 1.09455699e+09 1.09455702e+09
 1.09455705e+09 1.09455708e+09 1.09455712e+09 1.09455715e+09
 1.09455718e+09 1.09455722e+09 1.09455725e+09 1.09455728e+09
 1.09455732e+09 1.09455735e+09 1.09455738e+09 1.09455741e+09
 1.09455745e+09 1.09455748e+09 1.09455751e+09 1.09455755e+09
 1.09455758e+09 1.09455761e+09 1.09455764e+09 1.09455768e+09
 1.09455771e+09 1.09455774e+09 1.09455778e+09 1.09455781e+09
 1.09455784e+09 1.09455787e+09 1.09455791e+09 1.09455794e+09
 1.09455797e+09 1.09455801e+09 1.09455804e+09 1.09455807e+09
 1.09455810e+09 1.09455814e+09 1.09455817e+09 1.09455820e+09
 1.09455824e+09 1.09455827e+09 1.09455830e+09 1.09455833e+09
 1.09455837e+09 1.09455840e+09 1.09455843e+09 1.09455847e+09
 1.09455850e+09 1.09455853e+09 1.09455856e+09 1.09455860e+09
 1.09455863e+09 1.09455866e+09 1.09455870e+09 1.09455873e+09
 1.09455876e+09 1.09455879e+09 1.09455883e+09 1.09455886e+09
 1.09455889e+09 1.09455893e+09 1.09455896e+09 1.09455899e+09
 1.09455902e+09 1.09455906e+09 1.09455909e+09 1.09455912e+09
 1.09455916e+09 1.09455919e+09 1.09455922e+09 1.09455926e+09
 1.09455929e+09 1.09455932e+09 1.09455935e+09 1.09455939e+09
 1.09455942e+09 1.09455945e+09 1.09455949e+09 1.09455952e+09
 1.09455955e+09 1.09455958e+09 1.09455962e+09 1.09455965e+09
 1.09455968e+09 1.09455972e+09 1.09455975e+09 1.09455978e+09
 1.09455981e+09 1.09455985e+09 1.09455988e+09 1.09455991e+09
 1.09455995e+09 1.09455998e+09 1.09456001e+09 1.09456004e+09
 1.09456008e+09 1.09456011e+09 1.09456014e+09 1.09456018e+09
 1.09456021e+09 1.09456024e+09 1.09456027e+09 1.09456031e+09
 1.09456034e+09 1.09456037e+09 1.09456041e+09 1.09456044e+09
 1.09456047e+09 1.09456050e+09 1.09456054e+09 1.09456057e+09
 1.09456060e+09 1.09456064e+09 1.09456067e+09 1.09456070e+09
 1.09456073e+09 1.09456077e+09 1.09456080e+09 1.09456083e+09
 1.09456087e+09 1.09456090e+09 1.09456093e+09 1.09456097e+09
 1.09456100e+09 1.09456103e+09 1.09456106e+09 1.09456110e+09
 1.09456113e+09 1.09456116e+09 1.09456120e+09 1.09456123e+09
 1.09456126e+09 1.09456129e+09 1.09456133e+09 1.09456136e+09
 1.09456139e+09 1.09456143e+09 1.09456146e+09 1.09456149e+09
 1.09456152e+09 1.09456156e+09 1.09456159e+09 1.09456162e+09
 1.09456166e+09 1.09456169e+09 1.09456172e+09 1.09456175e+09
 1.09456179e+09 1.09456182e+09 1.09456185e+09 1.09456189e+09
 1.09456192e+09 1.09456195e+09 1.09456198e+09 1.09456202e+09
 1.09456205e+09 1.09456208e+09 1.09456212e+09 1.09456215e+09
 1.09456218e+09 1.09456221e+09 1.09456225e+09 1.09456228e+09
 1.09456231e+09 1.09456235e+09 1.09456238e+09 1.09456241e+09
 1.09456244e+09 1.09456248e+09 1.09456251e+09 1.09456254e+09
 1.09456258e+09 1.09456261e+09 1.09456264e+09 1.09456267e+09
 1.09456271e+09 1.09456274e+09 1.09456277e+09 1.09456281e+09
 1.09456284e+09 1.09456287e+09 1.09456291e+09 1.09456294e+09
 1.09456297e+09 1.09456300e+09 1.09456304e+09 1.09456307e+09
 1.09456310e+09 1.09456314e+09 1.09456317e+09 1.09456320e+09
 1.09456323e+09 1.09456327e+09 1.09456330e+09 1.09456333e+09
 1.09456337e+09 1.09456340e+09 1.09456343e+09 1.09456346e+09
 1.09456350e+09 1.09456353e+09 1.09456356e+09 1.09456360e+09
 1.09456363e+09 1.09456366e+09 1.09456369e+09 1.09456373e+09
 1.09456376e+09 1.09456379e+09 1.09456383e+09 1.09456386e+09
 1.09456389e+09 1.09456392e+09 1.09456396e+09 1.09456399e+09
 1.09456402e+09 1.09456406e+09 1.09456409e+09 1.09456412e+09
 1.09456415e+09 1.09456419e+09 1.09456422e+09 1.09456425e+09
 1.09456429e+09 1.09456432e+09 1.09456435e+09 1.09456438e+09
 1.09456442e+09 1.09456445e+09 1.09456448e+09 1.09456452e+09
 1.09456455e+09 1.09456458e+09 1.09456462e+09 1.09456465e+09
 1.09456468e+09 1.09456471e+09 1.09456475e+09 1.09456478e+09
 1.09456481e+09 1.09456485e+09 1.09456488e+09 1.09456491e+09
 1.09456494e+09 1.09456498e+09 1.09456501e+09 1.09456504e+09
 1.09456508e+09 1.09456511e+09 1.09456514e+09 1.09456517e+09
 1.09456521e+09 1.09456524e+09 1.09456527e+09 1.09456531e+09
 1.09456534e+09 1.09456537e+09 1.09456540e+09 1.09456544e+09
 1.09456547e+09 1.09456550e+09 1.09456554e+09 1.09456557e+09
 1.09456560e+09 1.09456563e+09 1.09456567e+09 1.09456570e+09
 1.09456573e+09 1.09456577e+09 1.09456580e+09 1.09456583e+09
