name =JUICE_ROI_GAN_2_0_16
flyby = ['2034 SEP 07 06:03:51', '2034 SEP 08 06:03:51']
Observation TW = <SpiceCell dtype = 1, length = 0, size = 3400, card = 14, is_set = 1, adjust = 0, init = 1, base = 94383695967184, data = 94383695967232>
Res(t) = [1.17210972 1.17104474 1.16998246 1.16892287 1.16786598 1.16681179
 1.1657603  1.16471152 1.16366545 1.16262209 1.16158144 1.16054351
 1.15950829 1.1584758  1.15744603 1.15641898 1.15539466 1.15437308
 1.15335422 1.1523381  1.15132471 1.15031406 1.14930616 1.148301
 1.14729858 1.14629892 1.145302   1.14430784 1.14331643 1.14232778
 1.14134189 1.14035877 1.1393784  1.13840081 1.13742598 1.13645393
 1.13548464 1.13451814 1.13355441 1.13259346 1.13163529 1.13067991
 1.12972731 1.1287775  1.12783049 1.12688626 1.12594483 1.1250062
 1.12407037 1.12313734 1.12220711 1.12127969 1.12035508 1.11943328
 1.11851428 1.11759811 1.11668475 1.1157742  1.11486648 1.11396158
 1.1130595  1.11216025 1.11126383 1.11037023 1.10947947 1.10859155
 1.10770645 1.1068242  1.10594479 1.10506822 1.10419449 1.1033236
 1.10245557 1.10159038 1.10072805 1.09986857 1.09901194 1.09815817
 1.09730725 1.0964592  1.09561401 1.09477168 1.09393222 1.09309563
 1.0922619  1.09143104 1.09060306 1.08977795 1.08895572 1.08813636
 1.08731989 1.08650629 1.08569558 1.08488775 1.0840828  1.08328074
 1.08248157 1.0816853  1.08089191 1.08010142 1.07931382 1.07852911
 1.07774731 1.0769684  1.0761924  1.07541929 1.0746491  1.0738818
 1.07311741 1.07235593 1.07159736 1.0708417  1.07008895 1.06933912
 1.0685922  1.06784819 1.06710711 1.06636894 1.06563369 1.06490136
 1.06417195 1.06344547 1.06272191 1.06200128 1.06128357 1.06056879
 1.05985694 1.05914802 1.05844203 1.05773898 1.05703885 1.05634167
 1.05564741 1.0549561  1.05426772 1.05358228 1.05289978 1.05222022
 1.0515436  1.05086992 1.05019919 1.0495314  1.04886655 1.04820465
 1.0475457  1.0468897  1.04623664 1.04558653 1.04493937 1.04429516
 1.0436539  1.0430156  1.04238024 1.04174784 1.04111839 1.0404919
 1.03986836 1.03924778 1.03863015 1.03801548 1.03740377 1.03679502
 1.03618922 1.03558638 1.0349865  1.03438958 1.03379562 1.03320462
 1.03261658 1.03203151 1.03144939 1.03087023 1.03029404 1.02972081
 1.02915054 1.02858324 1.0280189  1.02745752 1.0268991  1.02634365
 1.02579116 1.02524163 1.02469507 1.02415148 1.02361084 1.02307317
 1.02253847 1.02200673 1.02147795 1.02095214 1.02042929 1.0199094
 1.01939248 1.01887852 1.01836753 1.0178595  1.01735443 1.01685233
 1.01635318 1.015857   1.01536379 1.01487353 1.01438624 1.0139019
 1.01342053 1.01294212 1.01246667 1.01199417 1.01152464 1.01105807
 1.01059445 1.01013379 1.00967609 1.00922135 1.00876956 1.00832072
 1.00787485 1.00743192 1.00699195 1.00655493 1.00612087 1.00568975
 1.00526159 1.00483638 1.00441411 1.00399479 1.00357843 1.003165
 1.00275453 1.00234699 1.00194241 1.00154076 1.00114206 1.0007463
 1.00035347 0.99996359 0.99957665 0.99919264 0.99881156 0.99843343
 0.99805822 0.99768595 0.99731661 0.99695019 0.99658671 0.99622615
 0.99586852 0.99551382 0.99516204 0.99481317 0.99446724 0.99412421
 0.99378411 0.99344693 0.99311265 0.9927813  0.99245285 0.99212731
 0.99180469 0.99148497 0.99116815 0.99085424 0.99054323 0.99023513
 0.98992992 0.98962761 0.98932819 0.98903167 0.98873804 0.9884473
 0.98815945 0.98787448 0.9875924  0.9873132  0.98703689 0.98676345
 0.98649289 0.9862252  0.98596039 0.98569844 0.98543937 0.98518316
 0.98492982 0.98467934 0.98443172 0.98418696 0.98394505 0.983706
 0.9834698  0.98323644 0.98300594 0.98277828 0.98255346 0.98233148
 0.98211234 0.98189604 0.98168256 0.98147192 0.98126411 0.98105912
 0.98085695 0.98065761 0.98046108 0.98026736 0.98007646 0.97988837
 0.97970309 0.97952061 0.97934094 0.97916406 0.97898998 0.97881869
 0.97865019 0.97848449 0.97832157 0.97816143 0.97800407 0.97784948
 0.97769767 0.97754864 0.97740237 0.97725886 0.97711812 0.97698014
 0.97684491 0.97671243 0.97658271 0.97645573 0.9763315  0.97621
 0.97609125 0.97597523 0.97586194 0.97575137 0.97564354 0.97553842
 0.97543602 0.97533634 0.97523937 0.9751451  0.97505354 0.97496468
 0.97487852 0.97479506 0.97471428 0.9746362  0.97456079 0.97448807
 0.97441803 0.97435065 0.97428595 0.97422392 0.97416454 0.97410783
 0.97405377 0.97400237 0.97395361 0.97390749 0.97386402 0.97382318
 0.97378498 0.97374941 0.97371646 0.97368613 0.97365843 0.97363333
 0.97361085 0.97359097 0.9735737  0.97355902 0.97354694 0.97353745
 0.97353054 0.97352622 0.97352447 0.9735253  0.9735287  0.97353467
 0.9735432  0.97355429 0.97356793 0.97358412 0.97360286 0.97362414
 0.97364795 0.9736743  0.97370318 0.97373458 0.97376851 0.97380494
 0.9738439  0.97388535 0.97392931 0.97397577 0.97402473 0.97407617
 0.9741301  0.97418651 0.9742454  0.97430676 0.97437058 0.97443687
 0.97450562 0.97457682 0.97465048 0.97472658 0.97480511 0.97488609
 0.97496949 0.97505533 0.97514358 0.97523425 0.97532734 0.97542283
 0.97552073 0.97562103 0.97572372 0.9758288  0.97593626 0.9760461
 0.97615832 0.97627291 0.97638987 0.97650918 0.97663085 0.97675488
 0.97688125 0.97700996 0.977141   0.97727438 0.97741009 0.97754811
 0.97768846 0.97783111 0.97797607 0.97812334 0.9782729  0.97842475
 0.97857889 0.97873531 0.97889401 0.97905498 0.97921822 0.97938372
 0.97955147 0.97972148 0.97989374 0.98006823 0.98024496 0.98042392
 0.98060511 0.98078852 0.98097415 0.98116198 0.98135202 0.98154426
 0.9817387  0.98193532 0.98213413 0.98233512 0.98253828 0.98274361
 0.9829511  0.98316076 0.98337256 0.98358651 0.98380261 0.98402084
 0.9842412  0.98446369 0.9846883  0.98491502 0.98514386 0.9853748
 0.98560784 0.98584297 0.98608019 0.9863195  0.98656088 0.98680434
 0.98704986 0.98729744 0.98754708 0.98779877 0.9880525  0.98830828
 0.98856609 0.98882592 0.98908779 0.98935166 0.98961755 0.98988545
 0.99015535 0.99042724 0.99070113 0.99097699 0.99125484 0.99153466
 0.99181645 0.9921002  0.99238591 0.99267357 0.99296317 0.99325472
 0.9935482  0.9938436  0.99414093 0.99444018 0.99474134 0.99504441
 0.99534938 0.99565624 0.99596499 0.99627563 0.99658815 0.99690253
 0.99721879 0.99753691 0.99785688 0.9981787  0.99850237 0.99882787
 0.99915521 0.99948437 0.99981536 1.00014817 1.00048278 1.0008192
 1.00115742 1.00149743 1.00183922 1.00218281 1.00252816 1.00287529
 1.00322418 1.00357483 1.00392724 1.00428139 1.00463728 1.00499492
 1.00535428 1.00571536 1.00607817 1.00644269 1.00680892 1.00717685
 1.00754647 1.00791779 1.00829079 1.00866547 1.00904182 1.00941984
 1.00979953 1.01018087 1.01056386 1.01094849 1.01133477 1.01172267
 1.01211221 1.01250337 1.01289614 1.01329052 1.01368651 1.0140841
 1.01448328 1.01488405 1.0152864  1.01569033 1.01609582 1.01650289
 1.01691151 1.01732168 1.0177334  1.01814667 1.01856147 1.0189778
 1.01939566 1.01981503 1.02023592 1.02065831 1.02108221 1.02150761
 1.02193449 1.02236286 1.02279271 1.02322403 1.02365682 1.02409107
 1.02452678 1.02496394 1.02540255 1.02584259 1.02628407 1.02672698
 1.02717131 1.02761705 1.02806421 1.02851277 1.02896273 1.02941409
 1.02986684 1.03032096 1.03077647 1.03123335 1.03169159 1.03215119
 1.03261215 1.03307446 1.03353811 1.0340031  1.03446943 1.03493708
 1.03540605 1.03587633 1.03634793 1.03682083 1.03729503 1.03777053
 1.03824731 1.03872537 1.03920471 1.03968532 1.0401672  1.04065034
 1.04113473 1.04162038 1.04210726 1.04259539 1.04308474 1.04357533
 1.04406713 1.04456015 1.04505438 1.04554982 1.04604646 1.04654429
 1.04704331 1.04754352 1.0480449  1.04854745 1.04905117 1.04955606
 1.0500621  1.05056929 1.05107763 1.0515871  1.05209771 1.05260945
 1.05312232 1.0536363  1.0541514  1.0546676  1.05518491 1.05570332
 1.05622281 1.0567434  1.05726506 1.0577878  1.05831161 1.05883649
 1.05936243 1.05988942 1.06041746 1.06094655 1.06147667 1.06200783
 1.06254002 1.06307323 1.06360746 1.06414271 1.06467896 1.06521621
 1.06575446 1.06629371 1.06683394 1.06737515 1.06791734 1.0684605
 1.06900463 1.06954972 1.07009577 1.07064276 1.07119071 1.07173959
 1.07228941 1.07284017 1.07339184 1.07394444 1.07449796 1.07505238
 1.07560772 1.07616395 1.07672108 1.0772791  1.077838   1.07839779
 1.07895845 1.07951999 1.08008239 1.08064565 1.08120977 1.08177473
 1.08234055 1.08290721 1.0834747  1.08404302 1.08461218 1.08518215
 1.08575294 1.08632455 1.08689696 1.08747018 1.08804419 1.088619
 1.08919459 1.08977097 1.09034813 1.09092606 1.09150476 1.09208423
 1.09266445 1.09324544 1.09382717 1.09440965 1.09499287 1.09557682
 1.09616151 1.09674693 1.09733307 1.09791993 1.0985075  1.09909578
 1.09968476 1.10027445 1.10086483 1.1014559  1.10204765 1.10264009
 1.10323321 1.103827   1.10442145 1.10501657 1.10561235 1.10620879
 1.10680587 1.1074036  1.10800197 1.10860098 1.10920063 1.1098009
 1.11040179 1.1110033  1.11160543 1.11220817 1.11281152 1.11341547
 1.11402001 1.11462515 1.11523088 1.1158372  1.11644409 1.11705156
 1.11765961 1.11826822 1.1188774  1.11948713 1.12009742 1.12070827
 1.12131966 1.12193159 1.12254406 1.12315707 1.12377061 1.12438467
 1.12499925 1.12561436 1.12622998 1.12684611 1.12746274 1.12807988
 1.12869751 1.12931564 1.12993426 1.13055337 1.13117296 1.13179302
 1.13241356 1.13303457 1.13365605 1.13427799 1.13490039 1.13552324
 1.13614654 1.13677029 1.13739449 1.13801912 1.13864419 1.13926969
 1.13989562 1.14052197 1.14114874 1.14177593 1.14240353 1.14303154
 1.14365996 1.14428877 1.14491799 1.1455476  1.1461776  1.14680799
 1.14743876 1.14806991 1.14870143 1.14933333 1.1499656  1.15059823
 1.15123122 1.15186457 1.15249828 1.15313233 1.15376674 1.15440149
 1.15503657 1.155672   1.15630776 1.15694385 1.15758026 1.158217
 1.15885406 1.15949143 1.16012912 1.16076712 1.16140542 1.16204402
 1.16268293 1.16332213 1.16396162 1.1646014  1.16524147 1.16588182
 1.16652245 1.16716336 1.16780454 1.16844599 1.16908771 1.16972969
 1.17037193 1.17101442 1.17165717 1.17230017 1.17294342 1.17358692
 1.17423065 1.17487462 1.17551883 1.17616327 1.17680794 1.17745283
 1.17809795 1.17874328 1.17938884 1.1800346  1.18068058 1.18132676
 1.18197315 1.18261974 1.18326653 1.18391352 1.1845607  1.18520807
 1.18585562 1.18650336 1.18715129 1.18779939 1.18844766 1.18909611
 1.18974473 1.19039351 1.19104246 1.19169158 1.19234085 1.19299027
 1.19363985 1.19428958 1.19493946 1.19558949 1.19623965 1.19688996
 1.1975404  1.19819098 1.19884169 1.19949253 1.20014349 1.20079458
 1.20144579 1.20209712 1.20274857 1.20340013 1.2040518  1.20470357
 1.20535546 1.20600745 1.20665954 1.20731172 1.20796401 1.20861639
 1.20926885 1.20992141 1.21057405 1.21122678 1.21187959 1.21253248
 1.21318544 1.21383848 1.21449159 1.21514478 1.21579802 1.21645134
 1.21710471 1.21775815 1.21841164 1.2190652  1.2197188  1.22037246
 1.22102616 1.22167991 1.22233371 1.22298755 1.22364143 1.22429534
 1.2249493  1.22560329 1.22625731 1.22691135 1.22756543 1.22821953
 1.22887366 1.22952781 1.23018197 1.23083616 1.23149036 1.23214457
 1.23279879 1.23345302 1.23410726 1.23476151 1.23541575 1.23607
 1.23672425 1.2373785  1.23803274 1.23868697 1.2393412  1.23999542
 1.24064962 1.24130381 1.24195799 1.24261214 1.24326628 1.2439204
 1.24457449 1.24522856 1.2458826  1.24653662 1.2471906  1.24784455
 1.24849847 1.24915235 1.2498062  1.25046001 1.25111377 1.2517675
 1.25242118 1.25307482 1.25372841 1.25438195 1.25503544 1.25568888
 1.25634226 1.25699559 1.25764887 1.25830208 1.25895524 1.25960833
 1.26026137 1.26091434 1.26156724 1.26222007 1.26287284 1.26352554
 1.26417816 1.26483071 1.26548319 1.26613559 1.26678792 1.26744016
 1.26809233 1.26874441 1.26939642 1.27004833]
t = [1.09450935e+09 1.09450942e+09 1.09450949e+09 1.09450956e+09
 1.09450963e+09 1.09450971e+09 1.09450978e+09 1.09450985e+09
 1.09450992e+09 1.09450999e+09 1.09451006e+09 1.09451013e+09
 1.09451020e+09 1.09451027e+09 1.09451034e+09 1.09451042e+09
 1.09451049e+09 1.09451056e+09 1.09451063e+09 1.09451070e+09
 1.09451077e+09 1.09451084e+09 1.09451091e+09 1.09451098e+09
 1.09451105e+09 1.09451113e+09 1.09451120e+09 1.09451127e+09
 1.09451134e+09 1.09451141e+09 1.09451148e+09 1.09451155e+09
 1.09451162e+09 1.09451169e+09 1.09451176e+09 1.09451184e+09
 1.09451191e+09 1.09451198e+09 1.09451205e+09 1.09451212e+09
 1.09451219e+09 1.09451226e+09 1.09451233e+09 1.09451240e+09
 1.09451248e+09 1.09451255e+09 1.09451262e+09 1.09451269e+09
 1.09451276e+09 1.09451283e+09 1.09451290e+09 1.09451297e+09
 1.09451304e+09 1.09451311e+09 1.09451319e+09 1.09451326e+09
 1.09451333e+09 1.09451340e+09 1.09451347e+09 1.09451354e+09
 1.09451361e+09 1.09451368e+09 1.09451375e+09 1.09451382e+09
 1.09451390e+09 1.09451397e+09 1.09451404e+09 1.09451411e+09
 1.09451418e+09 1.09451425e+09 1.09451432e+09 1.09451439e+09
 1.09451446e+09 1.09451453e+09 1.09451461e+09 1.09451468e+09
 1.09451475e+09 1.09451482e+09 1.09451489e+09 1.09451496e+09
 1.09451503e+09 1.09451510e+09 1.09451517e+09 1.09451524e+09
 1.09451532e+09 1.09451539e+09 1.09451546e+09 1.09451553e+09
 1.09451560e+09 1.09451567e+09 1.09451574e+09 1.09451581e+09
 1.09451588e+09 1.09451596e+09 1.09451603e+09 1.09451610e+09
 1.09451617e+09 1.09451624e+09 1.09451631e+09 1.09451638e+09
 1.09451645e+09 1.09451652e+09 1.09451659e+09 1.09451667e+09
 1.09451674e+09 1.09451681e+09 1.09451688e+09 1.09451695e+09
 1.09451702e+09 1.09451709e+09 1.09451716e+09 1.09451723e+09
 1.09451730e+09 1.09451738e+09 1.09451745e+09 1.09451752e+09
 1.09451759e+09 1.09451766e+09 1.09451773e+09 1.09451780e+09
 1.09451787e+09 1.09451794e+09 1.09451801e+09 1.09451809e+09
 1.09451816e+09 1.09451823e+09 1.09451830e+09 1.09451837e+09
 1.09451844e+09 1.09451851e+09 1.09451858e+09 1.09451865e+09
 1.09451872e+09 1.09451880e+09 1.09451887e+09 1.09451894e+09
 1.09451901e+09 1.09451908e+09 1.09451915e+09 1.09451922e+09
 1.09451929e+09 1.09451936e+09 1.09451944e+09 1.09451951e+09
 1.09451958e+09 1.09451965e+09 1.09451972e+09 1.09451979e+09
 1.09451986e+09 1.09451993e+09 1.09452000e+09 1.09452007e+09
 1.09452015e+09 1.09452022e+09 1.09452029e+09 1.09452036e+09
 1.09452043e+09 1.09452050e+09 1.09452057e+09 1.09452064e+09
 1.09452071e+09 1.09452078e+09 1.09452086e+09 1.09452093e+09
 1.09452100e+09 1.09452107e+09 1.09452114e+09 1.09452121e+09
 1.09452128e+09 1.09452135e+09 1.09452142e+09 1.09452149e+09
 1.09452157e+09 1.09452164e+09 1.09452171e+09 1.09452178e+09
 1.09452185e+09 1.09452192e+09 1.09452199e+09 1.09452206e+09
 1.09452213e+09 1.09452220e+09 1.09452228e+09 1.09452235e+09
 1.09452242e+09 1.09452249e+09 1.09452256e+09 1.09452263e+09
 1.09452270e+09 1.09452277e+09 1.09452284e+09 1.09452292e+09
 1.09452299e+09 1.09452306e+09 1.09452313e+09 1.09452320e+09
 1.09452327e+09 1.09452334e+09 1.09452341e+09 1.09452348e+09
 1.09452355e+09 1.09452363e+09 1.09452370e+09 1.09452377e+09
 1.09452384e+09 1.09452391e+09 1.09452398e+09 1.09452405e+09
 1.09452412e+09 1.09452419e+09 1.09452426e+09 1.09452434e+09
 1.09452441e+09 1.09452448e+09 1.09452455e+09 1.09452462e+09
 1.09452469e+09 1.09452476e+09 1.09452483e+09 1.09452490e+09
 1.09452497e+09 1.09452505e+09 1.09452512e+09 1.09452519e+09
 1.09452526e+09 1.09452533e+09 1.09452540e+09 1.09452547e+09
 1.09452554e+09 1.09452561e+09 1.09452569e+09 1.09452576e+09
 1.09452583e+09 1.09452590e+09 1.09452597e+09 1.09452604e+09
 1.09452611e+09 1.09452618e+09 1.09452625e+09 1.09452632e+09
 1.09452640e+09 1.09452647e+09 1.09452654e+09 1.09452661e+09
 1.09452668e+09 1.09452675e+09 1.09452682e+09 1.09452689e+09
 1.09452696e+09 1.09452703e+09 1.09452711e+09 1.09452718e+09
 1.09452725e+09 1.09452732e+09 1.09452739e+09 1.09452746e+09
 1.09452753e+09 1.09452760e+09 1.09452767e+09 1.09452774e+09
 1.09452782e+09 1.09452789e+09 1.09452796e+09 1.09452803e+09
 1.09452810e+09 1.09452817e+09 1.09452824e+09 1.09452831e+09
 1.09452838e+09 1.09452845e+09 1.09452853e+09 1.09452860e+09
 1.09452867e+09 1.09452874e+09 1.09452881e+09 1.09452888e+09
 1.09452895e+09 1.09452902e+09 1.09452909e+09 1.09452917e+09
 1.09452924e+09 1.09452931e+09 1.09452938e+09 1.09452945e+09
 1.09452952e+09 1.09452959e+09 1.09452966e+09 1.09452973e+09
 1.09452980e+09 1.09452988e+09 1.09452995e+09 1.09453002e+09
 1.09453009e+09 1.09453016e+09 1.09453023e+09 1.09453030e+09
 1.09453037e+09 1.09453044e+09 1.09453051e+09 1.09453059e+09
 1.09453066e+09 1.09453073e+09 1.09453080e+09 1.09453087e+09
 1.09453094e+09 1.09453101e+09 1.09453108e+09 1.09453115e+09
 1.09453122e+09 1.09453130e+09 1.09453137e+09 1.09453144e+09
 1.09453151e+09 1.09453158e+09 1.09453165e+09 1.09453172e+09
 1.09453179e+09 1.09453186e+09 1.09453193e+09 1.09453201e+09
 1.09453208e+09 1.09453215e+09 1.09453222e+09 1.09453229e+09
 1.09453236e+09 1.09453243e+09 1.09453250e+09 1.09453257e+09
 1.09453265e+09 1.09453272e+09 1.09453279e+09 1.09453286e+09
 1.09453293e+09 1.09453300e+09 1.09453307e+09 1.09453314e+09
 1.09453321e+09 1.09453328e+09 1.09453336e+09 1.09453343e+09
 1.09453350e+09 1.09453357e+09 1.09453364e+09 1.09453371e+09
 1.09453378e+09 1.09453385e+09 1.09453392e+09 1.09453399e+09
 1.09453407e+09 1.09453414e+09 1.09453421e+09 1.09453428e+09
 1.09453435e+09 1.09453442e+09 1.09453449e+09 1.09453456e+09
 1.09453463e+09 1.09453470e+09 1.09453478e+09 1.09453485e+09
 1.09453492e+09 1.09453499e+09 1.09453506e+09 1.09453513e+09
 1.09453520e+09 1.09453527e+09 1.09453534e+09 1.09453541e+09
 1.09453549e+09 1.09453556e+09 1.09453563e+09 1.09453570e+09
 1.09453577e+09 1.09453584e+09 1.09453591e+09 1.09453598e+09
 1.09453605e+09 1.09453613e+09 1.09453620e+09 1.09453627e+09
 1.09453634e+09 1.09453641e+09 1.09453648e+09 1.09453655e+09
 1.09453662e+09 1.09453669e+09 1.09453676e+09 1.09453684e+09
 1.09453691e+09 1.09453698e+09 1.09453705e+09 1.09453712e+09
 1.09453719e+09 1.09453726e+09 1.09453733e+09 1.09453740e+09
 1.09453747e+09 1.09453755e+09 1.09453762e+09 1.09453769e+09
 1.09453776e+09 1.09453783e+09 1.09453790e+09 1.09453797e+09
 1.09453804e+09 1.09453811e+09 1.09453818e+09 1.09453826e+09
 1.09453833e+09 1.09453840e+09 1.09453847e+09 1.09453854e+09
 1.09453861e+09 1.09453868e+09 1.09453875e+09 1.09453882e+09
 1.09453889e+09 1.09453897e+09 1.09453904e+09 1.09453911e+09
 1.09453918e+09 1.09453925e+09 1.09453932e+09 1.09453939e+09
 1.09453946e+09 1.09453953e+09 1.09453961e+09 1.09453968e+09
 1.09453975e+09 1.09453982e+09 1.09453989e+09 1.09453996e+09
 1.09454003e+09 1.09454010e+09 1.09454017e+09 1.09454024e+09
 1.09454032e+09 1.09454039e+09 1.09454046e+09 1.09454053e+09
 1.09454060e+09 1.09454067e+09 1.09454074e+09 1.09454081e+09
 1.09454088e+09 1.09454095e+09 1.09454103e+09 1.09454110e+09
 1.09454117e+09 1.09454124e+09 1.09454131e+09 1.09454138e+09
 1.09454145e+09 1.09454152e+09 1.09454159e+09 1.09454166e+09
 1.09454174e+09 1.09454181e+09 1.09454188e+09 1.09454195e+09
 1.09454202e+09 1.09454209e+09 1.09454216e+09 1.09454223e+09
 1.09454230e+09 1.09454237e+09 1.09454245e+09 1.09454252e+09
 1.09454259e+09 1.09454266e+09 1.09454273e+09 1.09454280e+09
 1.09454287e+09 1.09454294e+09 1.09454301e+09 1.09454309e+09
 1.09454316e+09 1.09454323e+09 1.09454330e+09 1.09454337e+09
 1.09454344e+09 1.09454351e+09 1.09454358e+09 1.09454365e+09
 1.09454372e+09 1.09454380e+09 1.09454387e+09 1.09454394e+09
 1.09454401e+09 1.09454408e+09 1.09454415e+09 1.09454422e+09
 1.09454429e+09 1.09454436e+09 1.09454443e+09 1.09454451e+09
 1.09454458e+09 1.09454465e+09 1.09454472e+09 1.09454479e+09
 1.09454486e+09 1.09454493e+09 1.09454500e+09 1.09454507e+09
 1.09454514e+09 1.09454522e+09 1.09454529e+09 1.09454536e+09
 1.09454543e+09 1.09454550e+09 1.09454557e+09 1.09454564e+09
 1.09454571e+09 1.09454578e+09 1.09454585e+09 1.09454593e+09
 1.09454600e+09 1.09454607e+09 1.09454614e+09 1.09454621e+09
 1.09454628e+09 1.09454635e+09 1.09454642e+09 1.09454649e+09
 1.09454657e+09 1.09454664e+09 1.09454671e+09 1.09454678e+09
 1.09454685e+09 1.09454692e+09 1.09454699e+09 1.09454706e+09
 1.09454713e+09 1.09454720e+09 1.09454728e+09 1.09454735e+09
 1.09454742e+09 1.09454749e+09 1.09454756e+09 1.09454763e+09
 1.09454770e+09 1.09454777e+09 1.09454784e+09 1.09454791e+09
 1.09454799e+09 1.09454806e+09 1.09454813e+09 1.09454820e+09
 1.09454827e+09 1.09454834e+09 1.09454841e+09 1.09454848e+09
 1.09454855e+09 1.09454862e+09 1.09454870e+09 1.09454877e+09
 1.09454884e+09 1.09454891e+09 1.09454898e+09 1.09454905e+09
 1.09454912e+09 1.09454919e+09 1.09454926e+09 1.09454934e+09
