name =JUICE_ROI_GAN_6_3_06
flyby = ['2034 SEP 28 18:48:51', '2034 SEP 29 18:48:51']
Observation TW = <SpiceCell dtype = 1, length = 0, size = 3000, card = 10, is_set = 1, adjust = 0, init = 1, base = 94527700103840, data = 94527700103888>
Res(t) = [2.63869201 2.63461238 2.63053534 2.62646094 2.62238919 2.61832013
 2.61425378 2.61019019 2.60612937 2.60207137 2.5980162  2.59396391
 2.58991451 2.58586804 2.58182454 2.57778401 2.57374652 2.56971208
 2.56568071 2.56165246 2.55762736 2.55360542 2.54958668 2.54557119
 2.54155895 2.53755001 2.53354439 2.52954214 2.52554326 2.5215478
 2.51755579 2.51356724 2.50958221 2.50560073 2.5016228  2.49764847
 2.49367777 2.48971073 2.48574737 2.48178774 2.47783186 2.47387976
 2.46993146 2.46598701 2.46204642 2.45810974 2.45417698 2.45024819
 2.44632339 2.4424026  2.43848587 2.43457322 2.43066467 2.42676027
 2.42286004 2.41896401 2.41507221 2.41118467 2.40730141 2.40342248
 2.39954789 2.39567769 2.39181188 2.38795052 2.38409362 2.38024122
 2.37639334 2.37255002 2.36871128 2.36487715 2.36104767 2.35722286
 2.35340274 2.34958735 2.34577673 2.34197089 2.33816986 2.33437368
 2.33058237 2.32679596 2.32301448 2.31923795 2.31546642 2.31169989
 2.30793841 2.304182   2.30043069 2.29668451 2.29294348 2.28920763
 2.285477   2.2817516  2.27803146 2.27431662 2.27060709 2.26690292
 2.26320412 2.25951072 2.25582275 2.25214023 2.2484632  2.24479167
 2.24112568 2.23746525 2.23381042 2.23016119 2.22651761 2.2228797
 2.21924747 2.21562097 2.21200021 2.20838523 2.20477604 2.20117267
 2.19757515 2.1939835  2.19039648 2.18681657 2.18324259 2.17967458
 2.17611256 2.17255656 2.1690066  2.1654627  2.16192489 2.15839319
 2.15486762 2.15134822 2.147835   2.14432799 2.14082721 2.13733269
 2.13384444 2.13036249 2.12688687 2.12341759 2.11995469 2.11649817
 2.11304808 2.10960441 2.10616721 2.10273649 2.09931227 2.09589458
 2.09248343 2.08907886 2.08568087 2.08228949 2.07890475 2.07552666
 2.07215524 2.06879052 2.06543252 2.06208125 2.05873673 2.055399
 2.05206805 2.04874393 2.04542664 2.04211621 2.03881265 2.03551599
 2.03222624 2.02894342 2.02566755 2.02239866 2.01913675 2.01588185
 2.01263398 2.00939315 2.00615938 2.00293268 1.99971309 1.99650061
 1.99329527 1.99009707 1.98690604 1.98372219 1.98054554 1.97737611
 1.97421391 1.97105896 1.96791127 1.96477087 1.96163776 1.95851197
 1.9553935  1.95228238 1.94917862 1.94608223 1.94299323 1.93991164
 1.93683746 1.93377072 1.93071142 1.92765958 1.92461522 1.92157835
 1.91854898 1.91552712 1.9125128  1.90950602 1.90650679 1.90351513
 1.90053106 1.89755458 1.8945857  1.89162444 1.88867081 1.88572483
 1.8827865  1.87985583 1.87693284 1.87401754 1.87110994 1.86821005
 1.86531788 1.86243344 1.85955675 1.85668781 1.85382663 1.85097322
 1.8481276  1.84528976 1.84245974 1.83963752 1.83682312 1.83401655
 1.83121782 1.82842694 1.82564392 1.82286875 1.82010146 1.81734206
 1.81459054 1.81184691 1.80911119 1.80638339 1.8036635  1.80095154
 1.79824751 1.79555142 1.79286328 1.79018309 1.78751086 1.7848466
 1.78219031 1.779542   1.77690167 1.77426933 1.77164499 1.76902864
 1.76642031 1.76381998 1.76122767 1.75864338 1.75606711 1.75349888
 1.75093868 1.74838651 1.74584239 1.74330631 1.74077829 1.73825831
 1.7357464  1.73324254 1.73074674 1.72825901 1.72577935 1.72330776
 1.72084425 1.71838881 1.71594145 1.71350217 1.71107097 1.70864786
 1.70623283 1.70382589 1.70142704 1.69903628 1.69665361 1.69427903
 1.69191255 1.68955416 1.68720387 1.68486167 1.68252756 1.68020155
 1.67788364 1.67557382 1.67327209 1.67097846 1.66869293 1.66641549
 1.66414614 1.66188488 1.65963171 1.65738663 1.65514965 1.65292074
 1.65069993 1.64848719 1.64628254 1.64408597 1.64189747 1.63971705
 1.63754471 1.63538043 1.63322423 1.63107609 1.62893601 1.62680399
 1.62468003 1.62256412 1.62045626 1.61835645 1.61626468 1.61418095
 1.61210526 1.61003759 1.60797796 1.60592635 1.60388276 1.60184718
 1.59981962 1.59780006 1.5957885  1.59378494 1.59178937 1.58980179
 1.58782219 1.58585057 1.58388691 1.58193122 1.57998349 1.57804372
 1.57611189 1.57418801 1.57227206 1.57036404 1.56846395 1.56657178
 1.56468751 1.56281115 1.56094269 1.55908212 1.55722944 1.55538463
 1.5535477  1.55171863 1.54989741 1.54808404 1.54627852 1.54448083
 1.54269097 1.54090892 1.53913469 1.53736826 1.53560963 1.53385878
 1.53211571 1.53038042 1.52865289 1.52693311 1.52522107 1.52351678
 1.52182021 1.52013137 1.51845023 1.5167768  1.51511106 1.513453
 1.51180262 1.51015991 1.50852485 1.50689744 1.50527766 1.50366552
 1.50206099 1.50046407 1.49887476 1.49729302 1.49571887 1.49415229
 1.49259327 1.4910418  1.48949786 1.48796145 1.48643256 1.48491118
 1.4833973  1.4818909  1.48039198 1.47890052 1.47741652 1.47593996
 1.47447084 1.47300913 1.47155484 1.47010794 1.46866844 1.46723631
 1.46581155 1.46439414 1.46298407 1.46158134 1.46018592 1.45879782
 1.45741701 1.45604348 1.45467723 1.45331824 1.45196651 1.450622
 1.44928473 1.44795466 1.4466318  1.44531613 1.44400764 1.44270631
 1.44141213 1.44012509 1.43884518 1.43757239 1.4363067  1.4350481
 1.43379658 1.43255212 1.43131471 1.43008435 1.42886101 1.42764469
 1.42643537 1.42523303 1.42403767 1.42284928 1.42166783 1.42049332
 1.41932574 1.41816506 1.41701128 1.41586439 1.41472436 1.4135912
 1.41246487 1.41134538 1.4102327  1.40912683 1.40802775 1.40693544
 1.4058499  1.40477111 1.40369906 1.40263372 1.4015751  1.40052317
 1.39947792 1.39843934 1.39740742 1.39638213 1.39536347 1.39435142
 1.39334597 1.39234711 1.39135482 1.39036908 1.38938989 1.38841722
 1.38745107 1.38649142 1.38553826 1.38459157 1.38365133 1.38271754
 1.38179019 1.38086924 1.3799547  1.37904655 1.37814477 1.37724935
 1.37636027 1.37547753 1.3746011  1.37373097 1.37286713 1.37200956
 1.37115825 1.37031319 1.36947435 1.36864173 1.36781532 1.36699508
 1.36618102 1.36537312 1.36457136 1.36377574 1.36298622 1.3622028
 1.36142547 1.36065421 1.35988901 1.35912985 1.35837671 1.35762959
 1.35688847 1.35615333 1.35542416 1.35470094 1.35398366 1.35327231
 1.35256687 1.35186732 1.35117365 1.35048586 1.34980391 1.3491278
 1.34845752 1.34779304 1.34713436 1.34648145 1.34583431 1.34519292
 1.34455727 1.34392733 1.34330311 1.34268457 1.34207171 1.34146451
 1.34086296 1.34026704 1.33967675 1.33909205 1.33851294 1.33793941
 1.33737144 1.33680902 1.33625212 1.33570074 1.33515487 1.33461448
 1.33407956 1.3335501  1.33302609 1.3325075  1.33199433 1.33148656
 1.33098417 1.33048716 1.3299955  1.32950918 1.32902819 1.32855252
 1.32808214 1.32761705 1.32715722 1.32670265 1.32625333 1.32580923
 1.32537034 1.32493665 1.32450814 1.3240848  1.32366662 1.32325358
 1.32284566 1.32244285 1.32204515 1.32165252 1.32126497 1.32088247
 1.32050501 1.32013257 1.31976515 1.31940273 1.31904529 1.31869282
 1.31834531 1.31800273 1.31766509 1.31733236 1.31700453 1.31668158
 1.3163635  1.31605028 1.31574191 1.31543836 1.31513963 1.3148457
 1.31455656 1.31427219 1.31399258 1.31371772 1.31344759 1.31318217
 1.31292146 1.31266545 1.3124141  1.31216743 1.3119254  1.31168801
 1.31145523 1.31122707 1.31100351 1.31078452 1.3105701  1.31036024
 1.31015491 1.30995412 1.30975783 1.30956605 1.30937875 1.30919593
 1.30901757 1.30884365 1.30867417 1.3085091  1.30834845 1.30819218
 1.3080403  1.30789278 1.30774962 1.3076108  1.3074763  1.30734612
 1.30722024 1.30709865 1.30698133 1.30686828 1.30675947 1.3066549
 1.30655455 1.30645842 1.30636648 1.30627872 1.30619514 1.30611571
 1.30604043 1.30596929 1.30590226 1.30583935 1.30578052 1.30572578
 1.30567511 1.3056285  1.30558593 1.3055474  1.30551288 1.30548237
 1.30545586 1.30543333 1.30541477 1.30540017 1.30538951 1.30538278
 1.30537998 1.30538108 1.30538608 1.30539497 1.30540773 1.30542434
 1.30544481 1.30546911 1.30549723 1.30552917 1.3055649  1.30560443
 1.30564773 1.30569479 1.30574561 1.30580016 1.30585845 1.30592045
 1.30598615 1.30605555 1.30612864 1.30620539 1.3062858  1.30636985
 1.30645755 1.30654886 1.30664379 1.30674232 1.30684444 1.30695014
 1.3070594  1.30717222 1.30728858 1.30740848 1.3075319  1.30765883
 1.30778925 1.30792317 1.30806056 1.30820142 1.30834574 1.30849349
 1.30864468 1.3087993  1.30895732 1.30911875 1.30928356 1.30945175
 1.30962331 1.30979823 1.30997649 1.31015809 1.31034302 1.31053125
 1.3107228  1.31091763 1.31111575 1.31131714 1.3115218  1.3117297
 1.31194084 1.31215522 1.31237282 1.31259362 1.31281763 1.31304482
 1.3132752  1.31350874 1.31374544 1.3139853  1.31422829 1.31447441
 1.31472365 1.31497599 1.31523144 1.31548997 1.31575159 1.31601627
 1.31628402 1.31655481 1.31682865 1.31710551 1.31738539 1.31766829
 1.31795419 1.31824308 1.31853495 1.3188298  1.3191276  1.31942837
 1.31973207 1.32003872 1.32034829 1.32066077 1.32097616 1.32129445
 1.32161563 1.32193969 1.32226662 1.32259642 1.32292906 1.32326455
 1.32360287 1.32394402 1.32428798 1.32463475 1.32498432 1.32533668
 1.32569183 1.32604974 1.32641042 1.32677385 1.32714003 1.32750895
 1.32788059 1.32825496 1.32863203 1.32901182 1.32939429 1.32977946
 1.3301673  1.33055781 1.33095098 1.3313468  1.33174527 1.33214638
 1.33255012 1.33295647 1.33336544 1.33377701 1.33419118 1.33460793
 1.33502727 1.33544917 1.33587364 1.33630067 1.33673024 1.33716236
 1.33759701 1.33803418 1.33847387 1.33891607 1.33936076 1.33980796
 1.34025764 1.3407098  1.34116443 1.34162152 1.34208107 1.34254307
 1.34300751 1.34347438 1.34394368 1.3444154  1.34488953 1.34536606
 1.345845   1.34632632 1.34681003 1.34729611 1.34778456 1.34827537
 1.34876854 1.34926405 1.34976191 1.3502621  1.35076461 1.35126945
 1.3517766  1.35228606 1.35279781 1.35331186 1.3538282  1.35434681
 1.3548677  1.35539085 1.35591626 1.35644393 1.35697384 1.35750599
 1.35804038 1.35857699 1.35911583 1.35965688 1.36020013 1.36074559
 1.36129324 1.36184309 1.36239511 1.36294932 1.36350569 1.36406423
 1.36462493 1.36518778 1.36575277 1.36631991 1.36688918 1.36746058
 1.3680341  1.36860974 1.36918749 1.36976735 1.3703493  1.37093335
 1.37151949 1.37210771 1.372698   1.37329037 1.3738848  1.3744813
 1.37507984 1.37568044 1.37628308 1.37688776 1.37749447 1.37810321
 1.37871397 1.37932674 1.37994153 1.38055832 1.38117712 1.38179791
 1.38242069 1.38304546 1.38367221 1.38430093 1.38493162 1.38556428
 1.3861989  1.38683547 1.387474   1.38811447 1.38875688 1.38940123
 1.3900475  1.39069571 1.39134583 1.39199788 1.39265183 1.3933077
 1.39396546 1.39462513 1.39528669 1.39595014 1.39661547 1.39728268
 1.39795177 1.39862273 1.39929556 1.39997026 1.40064681 1.40132521
 1.40200547 1.40268757 1.40337151 1.40405729 1.40474491 1.40543435
 1.40612562 1.40681871 1.40751361 1.40821033 1.40890886 1.4096092
 1.41031133 1.41101527 1.411721   1.41242851 1.41313782 1.4138489
 1.41456177 1.41527641 1.41599282 1.416711   1.41743094 1.41815265
 1.41887611 1.41960132 1.42032829 1.421057   1.42178745 1.42251965
 1.42325358 1.42398924 1.42472663 1.42546575 1.4262066  1.42694916
 1.42769344 1.42843943 1.42918714 1.42993655 1.43068766 1.43144048
 1.43219499 1.4329512  1.43370911 1.4344687  1.43522998 1.43599294
 1.43675758 1.4375239  1.43829189 1.43906156 1.4398329  1.4406059
 1.44138057 1.4421569  1.44293489 1.44371453 1.44449583 1.44527878
 1.44606338 1.44684963 1.44763752 1.44842705 1.44921821 1.45001102
 1.45080546 1.45160153 1.45239923 1.45319856 1.45399952 1.45480209
 1.45560629 1.45641211 1.45721954 1.45802859 1.45883925 1.45965152
 1.4604654  1.46128089 1.46209798 1.46291667 1.46373697 1.46455886
 1.46538235 1.46620743 1.46703411 1.46786238 1.46869224 1.46952369
 1.47035673 1.47119135 1.47202755 1.47286534]
t = [1.09635420e+09 1.09635429e+09 1.09635437e+09 1.09635446e+09
 1.09635455e+09 1.09635463e+09 1.09635472e+09 1.09635481e+09
 1.09635489e+09 1.09635498e+09 1.09635507e+09 1.09635515e+09
 1.09635524e+09 1.09635532e+09 1.09635541e+09 1.09635550e+09
 1.09635558e+09 1.09635567e+09 1.09635576e+09 1.09635584e+09
 1.09635593e+09 1.09635602e+09 1.09635610e+09 1.09635619e+09
 1.09635628e+09 1.09635636e+09 1.09635645e+09 1.09635654e+09
 1.09635662e+09 1.09635671e+09 1.09635679e+09 1.09635688e+09
 1.09635697e+09 1.09635705e+09 1.09635714e+09 1.09635723e+09
 1.09635731e+09 1.09635740e+09 1.09635749e+09 1.09635757e+09
 1.09635766e+09 1.09635775e+09 1.09635783e+09 1.09635792e+09
 1.09635801e+09 1.09635809e+09 1.09635818e+09 1.09635827e+09
 1.09635835e+09 1.09635844e+09 1.09635852e+09 1.09635861e+09
 1.09635870e+09 1.09635878e+09 1.09635887e+09 1.09635896e+09
 1.09635904e+09 1.09635913e+09 1.09635922e+09 1.09635930e+09
 1.09635939e+09 1.09635948e+09 1.09635956e+09 1.09635965e+09
 1.09635974e+09 1.09635982e+09 1.09635991e+09 1.09635999e+09
 1.09636008e+09 1.09636017e+09 1.09636025e+09 1.09636034e+09
 1.09636043e+09 1.09636051e+09 1.09636060e+09 1.09636069e+09
 1.09636077e+09 1.09636086e+09 1.09636095e+09 1.09636103e+09
 1.09636112e+09 1.09636121e+09 1.09636129e+09 1.09636138e+09
 1.09636147e+09 1.09636155e+09 1.09636164e+09 1.09636172e+09
 1.09636181e+09 1.09636190e+09 1.09636198e+09 1.09636207e+09
 1.09636216e+09 1.09636224e+09 1.09636233e+09 1.09636242e+09
 1.09636250e+09 1.09636259e+09 1.09636268e+09 1.09636276e+09
 1.09636285e+09 1.09636294e+09 1.09636302e+09 1.09636311e+09
 1.09636319e+09 1.09636328e+09 1.09636337e+09 1.09636345e+09
 1.09636354e+09 1.09636363e+09 1.09636371e+09 1.09636380e+09
 1.09636389e+09 1.09636397e+09 1.09636406e+09 1.09636415e+09
 1.09636423e+09 1.09636432e+09 1.09636441e+09 1.09636449e+09
 1.09636458e+09 1.09636467e+09 1.09636475e+09 1.09636484e+09
 1.09636492e+09 1.09636501e+09 1.09636510e+09 1.09636518e+09
 1.09636527e+09 1.09636536e+09 1.09636544e+09 1.09636553e+09
 1.09636562e+09 1.09636570e+09 1.09636579e+09 1.09636588e+09
 1.09636596e+09 1.09636605e+09 1.09636614e+09 1.09636622e+09
 1.09636631e+09 1.09636639e+09 1.09636648e+09 1.09636657e+09
 1.09636665e+09 1.09636674e+09 1.09636683e+09 1.09636691e+09
 1.09636700e+09 1.09636709e+09 1.09636717e+09 1.09636726e+09
 1.09636735e+09 1.09636743e+09 1.09636752e+09 1.09636761e+09
 1.09636769e+09 1.09636778e+09 1.09636787e+09 1.09636795e+09
 1.09636804e+09 1.09636812e+09 1.09636821e+09 1.09636830e+09
 1.09636838e+09 1.09636847e+09 1.09636856e+09 1.09636864e+09
 1.09636873e+09 1.09636882e+09 1.09636890e+09 1.09636899e+09
 1.09636908e+09 1.09636916e+09 1.09636925e+09 1.09636934e+09
 1.09636942e+09 1.09636951e+09 1.09636959e+09 1.09636968e+09
 1.09636977e+09 1.09636985e+09 1.09636994e+09 1.09637003e+09
 1.09637011e+09 1.09637020e+09 1.09637029e+09 1.09637037e+09
 1.09637046e+09 1.09637055e+09 1.09637063e+09 1.09637072e+09
 1.09637081e+09 1.09637089e+09 1.09637098e+09 1.09637107e+09
 1.09637115e+09 1.09637124e+09 1.09637132e+09 1.09637141e+09
 1.09637150e+09 1.09637158e+09 1.09637167e+09 1.09637176e+09
 1.09637184e+09 1.09637193e+09 1.09637202e+09 1.09637210e+09
 1.09637219e+09 1.09637228e+09 1.09637236e+09 1.09637245e+09
 1.09637254e+09 1.09637262e+09 1.09637271e+09 1.09637279e+09
 1.09637288e+09 1.09637297e+09 1.09637305e+09 1.09637314e+09
 1.09637323e+09 1.09637331e+09 1.09637340e+09 1.09637349e+09
 1.09637357e+09 1.09637366e+09 1.09637375e+09 1.09637383e+09
 1.09637392e+09 1.09637401e+09 1.09637409e+09 1.09637418e+09
 1.09637427e+09 1.09637435e+09 1.09637444e+09 1.09637452e+09
 1.09637461e+09 1.09637470e+09 1.09637478e+09 1.09637487e+09
 1.09637496e+09 1.09637504e+09 1.09637513e+09 1.09637522e+09
 1.09637530e+09 1.09637539e+09 1.09637548e+09 1.09637556e+09
 1.09637565e+09 1.09637574e+09 1.09637582e+09 1.09637591e+09
 1.09637599e+09 1.09637608e+09 1.09637617e+09 1.09637625e+09
 1.09637634e+09 1.09637643e+09 1.09637651e+09 1.09637660e+09
 1.09637669e+09 1.09637677e+09 1.09637686e+09 1.09637695e+09
 1.09637703e+09 1.09637712e+09 1.09637721e+09 1.09637729e+09
 1.09637738e+09 1.09637747e+09 1.09637755e+09 1.09637764e+09
 1.09637772e+09 1.09637781e+09 1.09637790e+09 1.09637798e+09
 1.09637807e+09 1.09637816e+09 1.09637824e+09 1.09637833e+09
 1.09637842e+09 1.09637850e+09 1.09637859e+09 1.09637868e+09
 1.09637876e+09 1.09637885e+09 1.09637894e+09 1.09637902e+09
 1.09637911e+09 1.09637919e+09 1.09637928e+09 1.09637937e+09
 1.09637945e+09 1.09637954e+09 1.09637963e+09 1.09637971e+09
 1.09637980e+09 1.09637989e+09 1.09637997e+09 1.09638006e+09
 1.09638015e+09 1.09638023e+09 1.09638032e+09 1.09638041e+09
 1.09638049e+09 1.09638058e+09 1.09638067e+09 1.09638075e+09
 1.09638084e+09 1.09638092e+09 1.09638101e+09 1.09638110e+09
 1.09638118e+09 1.09638127e+09 1.09638136e+09 1.09638144e+09
 1.09638153e+09 1.09638162e+09 1.09638170e+09 1.09638179e+09
 1.09638188e+09 1.09638196e+09 1.09638205e+09 1.09638214e+09
 1.09638222e+09 1.09638231e+09 1.09638239e+09 1.09638248e+09
 1.09638257e+09 1.09638265e+09 1.09638274e+09 1.09638283e+09
 1.09638291e+09 1.09638300e+09 1.09638309e+09 1.09638317e+09
 1.09638326e+09 1.09638335e+09 1.09638343e+09 1.09638352e+09
 1.09638361e+09 1.09638369e+09 1.09638378e+09 1.09638387e+09
 1.09638395e+09 1.09638404e+09 1.09638412e+09 1.09638421e+09
 1.09638430e+09 1.09638438e+09 1.09638447e+09 1.09638456e+09
 1.09638464e+09 1.09638473e+09 1.09638482e+09 1.09638490e+09
 1.09638499e+09 1.09638508e+09 1.09638516e+09 1.09638525e+09
 1.09638534e+09 1.09638542e+09 1.09638551e+09 1.09638559e+09
 1.09638568e+09 1.09638577e+09 1.09638585e+09 1.09638594e+09
 1.09638603e+09 1.09638611e+09 1.09638620e+09 1.09638629e+09
 1.09638637e+09 1.09638646e+09 1.09638655e+09 1.09638663e+09
 1.09638672e+09 1.09638681e+09 1.09638689e+09 1.09638698e+09
 1.09638707e+09 1.09638715e+09 1.09638724e+09 1.09638732e+09
 1.09638741e+09 1.09638750e+09 1.09638758e+09 1.09638767e+09
 1.09638776e+09 1.09638784e+09 1.09638793e+09 1.09638802e+09
 1.09638810e+09 1.09638819e+09 1.09638828e+09 1.09638836e+09
 1.09638845e+09 1.09638854e+09 1.09638862e+09 1.09638871e+09
 1.09638879e+09 1.09638888e+09 1.09638897e+09 1.09638905e+09
 1.09638914e+09 1.09638923e+09 1.09638931e+09 1.09638940e+09
 1.09638949e+09 1.09638957e+09 1.09638966e+09 1.09638975e+09
 1.09638983e+09 1.09638992e+09 1.09639001e+09 1.09639009e+09
 1.09639018e+09 1.09639027e+09 1.09639035e+09 1.09639044e+09
 1.09639052e+09 1.09639061e+09 1.09639070e+09 1.09639078e+09
 1.09639087e+09 1.09639096e+09 1.09639104e+09 1.09639113e+09
 1.09639122e+09 1.09639130e+09 1.09639139e+09 1.09639148e+09
 1.09639156e+09 1.09639165e+09 1.09639174e+09 1.09639182e+09
 1.09639191e+09 1.09639199e+09 1.09639208e+09 1.09639217e+09
 1.09639225e+09 1.09639234e+09 1.09639243e+09 1.09639251e+09
 1.09639260e+09 1.09639269e+09 1.09639277e+09 1.09639286e+09
 1.09639295e+09 1.09639303e+09 1.09639312e+09 1.09639321e+09
 1.09639329e+09 1.09639338e+09 1.09639347e+09 1.09639355e+09
 1.09639364e+09 1.09639372e+09 1.09639381e+09 1.09639390e+09
 1.09639398e+09 1.09639407e+09 1.09639416e+09 1.09639424e+09
 1.09639433e+09 1.09639442e+09 1.09639450e+09 1.09639459e+09
 1.09639468e+09 1.09639476e+09 1.09639485e+09 1.09639494e+09
 1.09639502e+09 1.09639511e+09 1.09639519e+09 1.09639528e+09
 1.09639537e+09 1.09639545e+09 1.09639554e+09 1.09639563e+09
 1.09639571e+09 1.09639580e+09 1.09639589e+09 1.09639597e+09
 1.09639606e+09 1.09639615e+09 1.09639623e+09 1.09639632e+09
 1.09639641e+09 1.09639649e+09 1.09639658e+09 1.09639667e+09
 1.09639675e+09 1.09639684e+09 1.09639692e+09 1.09639701e+09
 1.09639710e+09 1.09639718e+09 1.09639727e+09 1.09639736e+09
 1.09639744e+09 1.09639753e+09 1.09639762e+09 1.09639770e+09
 1.09639779e+09 1.09639788e+09 1.09639796e+09 1.09639805e+09
 1.09639814e+09 1.09639822e+09 1.09639831e+09 1.09639839e+09
 1.09639848e+09 1.09639857e+09 1.09639865e+09 1.09639874e+09
 1.09639883e+09 1.09639891e+09 1.09639900e+09 1.09639909e+09
 1.09639917e+09 1.09639926e+09 1.09639935e+09 1.09639943e+09
 1.09639952e+09 1.09639961e+09 1.09639969e+09 1.09639978e+09
 1.09639987e+09 1.09639995e+09 1.09640004e+09 1.09640012e+09
 1.09640021e+09 1.09640030e+09 1.09640038e+09 1.09640047e+09
 1.09640056e+09 1.09640064e+09 1.09640073e+09 1.09640082e+09
 1.09640090e+09 1.09640099e+09 1.09640108e+09 1.09640116e+09
 1.09640125e+09 1.09640134e+09 1.09640142e+09 1.09640151e+09
 1.09640159e+09 1.09640168e+09 1.09640177e+09 1.09640185e+09
 1.09640194e+09 1.09640203e+09 1.09640211e+09 1.09640220e+09
 1.09640229e+09 1.09640237e+09 1.09640246e+09 1.09640255e+09
 1.09640263e+09 1.09640272e+09 1.09640281e+09 1.09640289e+09
