name =JUICE_ROI_GAN_6_3_08
flyby = ['2034 SEP 28 18:48:51', '2034 SEP 29 18:48:51']
Observation TW = <SpiceCell dtype = 1, length = 0, size = 3000, card = 10, is_set = 1, adjust = 0, init = 1, base = 94470333286592, data = 94470333286640>
Res(t) = [2.08618363 2.08327143 2.08036733 2.07747132 2.07458338 2.07170351
 2.06883172 2.06596798 2.06311229 2.06026465 2.05742505 2.05459347
 2.05176993 2.0489544  2.04614688 2.04334736 2.04055584 2.03777231
 2.03499676 2.03222918 2.02946956 2.02671791 2.0239742  2.02123843
 2.0185106  2.0157907  2.01307871 2.01037463 2.00767845 2.00499017
 2.00230977 1.99963724 1.99697259 1.99431579 1.99166684 1.98902574
 1.98639246 1.98376701 1.98114938 1.97853955 1.97593752 1.97334328
 1.97075682 1.96817812 1.96560719 1.96304401 1.96048857 1.95794086
 1.95540088 1.95286861 1.95034404 1.94782717 1.94531798 1.94281647
 1.94032263 1.93783643 1.93535789 1.93288698 1.93042369 1.92796802
 1.92551996 1.92307949 1.92064661 1.9182213  1.91580356 1.91339337
 1.91099073 1.90859561 1.90620803 1.90382795 1.90145538 1.8990903
 1.8967327  1.89438257 1.8920399  1.88970468 1.8873769  1.88505655
 1.88274361 1.88043808 1.87813994 1.87584919 1.87356582 1.8712898
 1.86902113 1.86675981 1.86450581 1.86225913 1.86001976 1.85778769
 1.85556289 1.85334537 1.85113512 1.84893211 1.84673634 1.8445478
 1.84236647 1.84019235 1.83802543 1.83586568 1.83371311 1.83156769
 1.82942942 1.82729829 1.82517428 1.82305738 1.82094758 1.81884488
 1.81674925 1.81466068 1.81257917 1.8105047  1.80843726 1.80637684
 1.80432342 1.802277   1.80023756 1.7982051  1.79617959 1.79416103
 1.7921494  1.7901447  1.78814691 1.78615601 1.78417201 1.78219487
 1.78022461 1.77826119 1.77630461 1.77435485 1.77241192 1.77047578
 1.76854643 1.76662387 1.76470806 1.76279902 1.76089671 1.75900113
 1.75711227 1.75523012 1.75335465 1.75148587 1.74962375 1.7477683
 1.74591948 1.74407729 1.74224173 1.74041277 1.73859041 1.73677462
 1.73496541 1.73316275 1.73136664 1.72957707 1.72779401 1.72601746
 1.7242474  1.72248383 1.72072673 1.71897609 1.71723189 1.71549413
 1.71376279 1.71203786 1.71031932 1.70860717 1.70690139 1.70520197
 1.70350889 1.70182215 1.70014173 1.69846762 1.69679981 1.69513828
 1.69348303 1.69183403 1.69019128 1.68855477 1.68692448 1.6853004
 1.68368251 1.68207081 1.68046529 1.67886592 1.67727271 1.67568563
 1.67410467 1.67252982 1.67096107 1.66939841 1.66784181 1.66629129
 1.6647468  1.66320836 1.66167594 1.66014953 1.65862912 1.65711469
 1.65560625 1.65410376 1.65260722 1.65111662 1.64963194 1.64815318
 1.64668032 1.64521334 1.64375224 1.642297   1.64084762 1.63940407
 1.63796635 1.63653444 1.63510833 1.63368802 1.63227348 1.6308647
 1.62946168 1.6280644  1.62667284 1.625287   1.62390687 1.62253242
 1.62116366 1.61980056 1.61844312 1.61709131 1.61574514 1.61440459
 1.61306964 1.61174029 1.61041652 1.60909832 1.60778567 1.60647857
 1.60517701 1.60388096 1.60259043 1.60130539 1.60002584 1.59875176
 1.59748314 1.59621997 1.59496223 1.59370992 1.59246303 1.59122153
 1.58998542 1.5887547  1.58752933 1.58630932 1.58509465 1.58388531
 1.58268129 1.58148257 1.58028915 1.579101   1.57791813 1.57674052
 1.57556815 1.57440102 1.57323911 1.57208241 1.57093091 1.5697846
 1.56864346 1.56750749 1.56637667 1.565251   1.56413045 1.56301502
 1.56190469 1.56079946 1.55969931 1.55860423 1.55751422 1.55642925
 1.55534931 1.5542744  1.55320451 1.55213962 1.55107971 1.55002479
 1.54897483 1.54792983 1.54688978 1.54585465 1.54482445 1.54379916
 1.54277877 1.54176326 1.54075264 1.53974687 1.53874597 1.5377499
 1.53675867 1.53577225 1.53479065 1.53381384 1.53284182 1.53187457
 1.53091209 1.52995436 1.52900137 1.52805311 1.52710958 1.52617075
 1.52523662 1.52430717 1.5233824  1.5224623  1.52154684 1.52063604
 1.51972986 1.5188283  1.51793135 1.51703901 1.51615124 1.51526806
 1.51438944 1.51351538 1.51264586 1.51178088 1.51092042 1.51006447
 1.50921303 1.50836607 1.50752359 1.50668559 1.50585204 1.50502294
 1.50419828 1.50337804 1.50256223 1.50175081 1.5009438  1.50014116
 1.4993429  1.49854901 1.49775947 1.49697427 1.4961934  1.49541686
 1.49464462 1.49387669 1.49311305 1.49235369 1.4915986  1.49084777
 1.49010119 1.48935884 1.48862073 1.48788684 1.48715715 1.48643166
 1.48571036 1.48499324 1.48428029 1.48357149 1.48286684 1.48216633
 1.48146995 1.48077768 1.48008953 1.47940547 1.47872549 1.4780496
 1.47737777 1.47671    1.47604628 1.47538659 1.47473094 1.4740793
 1.47343167 1.47278804 1.4721484  1.47151273 1.47088104 1.47025331
 1.46962952 1.46900968 1.46839376 1.46778177 1.46717369 1.46656951
 1.46596922 1.46537282 1.46478028 1.46419161 1.4636068  1.46302583
 1.46244869 1.46187538 1.46130589 1.4607402  1.46017831 1.45962021
 1.45906588 1.45851533 1.45796853 1.45742549 1.45688619 1.45635062
 1.45581877 1.45529063 1.4547662  1.45424547 1.45372842 1.45321505
 1.45270534 1.4521993  1.4516969  1.45119815 1.45070303 1.45021153
 1.44972364 1.44923936 1.44875867 1.44828157 1.44780805 1.4473381
 1.4468717  1.44640886 1.44594956 1.4454938  1.44504155 1.44459283
 1.44414761 1.44370589 1.44326766 1.44283291 1.44240164 1.44197382
 1.44154947 1.44112855 1.44071108 1.44029704 1.43988641 1.4394792
 1.43907539 1.43867498 1.43827796 1.43788431 1.43749403 1.43710711
 1.43672355 1.43634333 1.43596645 1.43559289 1.43522266 1.43485573
 1.43449211 1.43413179 1.43377475 1.43342098 1.43307049 1.43272326
 1.43237929 1.43203855 1.43170106 1.4313668  1.43103575 1.43070792
 1.4303833  1.43006187 1.42974363 1.42942857 1.42911669 1.42880796
 1.4285024  1.42819999 1.42790071 1.42760458 1.42731156 1.42702167
 1.42673488 1.4264512  1.42617061 1.4258931  1.42561868 1.42534733
 1.42507903 1.4248138  1.42455161 1.42429247 1.42403636 1.42378327
 1.4235332  1.42328614 1.42304208 1.42280102 1.42256294 1.42232785
 1.42209572 1.42186656 1.42164036 1.42141711 1.42119681 1.42097943
 1.42076499 1.42055346 1.42034485 1.42013915 1.41993634 1.41973643
 1.4195394  1.41934524 1.41915396 1.41896554 1.41877997 1.41859726
 1.41841738 1.41824034 1.41806612 1.41789473 1.41772614 1.41756037
 1.41739739 1.4172372  1.4170798  1.41692517 1.41677332 1.41662423
 1.41647789 1.41633431 1.41619347 1.41605537 1.41591999 1.41578734
 1.4156574  1.41553018 1.41540565 1.41528382 1.41516468 1.41504822
 1.41493444 1.41482332 1.41471487 1.41460907 1.41450592 1.41440542
 1.41430755 1.4142123  1.41411968 1.41402968 1.41394229 1.41385749
 1.4137753  1.41369569 1.41361867 1.41354423 1.41347235 1.41340304
 1.41333629 1.41327209 1.41321044 1.41315132 1.41309473 1.41304068
 1.41298914 1.41294012 1.4128936  1.41284958 1.41280806 1.41276903
 1.41273249 1.41269841 1.41266681 1.41263768 1.412611   1.41258677
 1.41256499 1.41254565 1.41252875 1.41251427 1.41250221 1.41249257
 1.41248535 1.41248052 1.41247809 1.41247806 1.41248041 1.41248515
 1.41249225 1.41250173 1.41251357 1.41252777 1.41254432 1.41256321
 1.41258445 1.41260802 1.41263391 1.41266214 1.41269267 1.41272552
 1.41276068 1.41279813 1.41283789 1.41287993 1.41292425 1.41297085
 1.41301972 1.41307086 1.41312426 1.41317992 1.41323783 1.41329798
 1.41336037 1.413425   1.41349186 1.41356093 1.41363223 1.41370574
 1.41378145 1.41385937 1.41393948 1.41402179 1.41410628 1.41419295
 1.41428179 1.41437281 1.41446599 1.41456133 1.41465883 1.41475847
 1.41486026 1.41496419 1.41507025 1.41517844 1.41528875 1.41540119
 1.41551573 1.41563239 1.41575114 1.415872   1.41599495 1.41611999
 1.41624711 1.41637631 1.41650758 1.41664093 1.41677633 1.4169138
 1.41705332 1.41719489 1.4173385  1.41748415 1.41763184 1.41778155
 1.41793329 1.41808706 1.41824283 1.41840062 1.41856042 1.41872221
 1.41888601 1.41905179 1.41921956 1.41938932 1.41956105 1.41973476
 1.41991043 1.42008807 1.42026767 1.42044923 1.42063273 1.42081819
 1.42100558 1.42119491 1.42138617 1.42157936 1.42177448 1.42197151
 1.42217046 1.42237132 1.42257409 1.42277876 1.42298532 1.42319378
 1.42340413 1.42361636 1.42383047 1.42404646 1.42426432 1.42448405
 1.42470564 1.42492909 1.42515439 1.42538155 1.42561055 1.42584139
 1.42607407 1.42630858 1.42654493 1.4267831  1.42702309 1.4272649
 1.42750852 1.42775395 1.42800119 1.42825022 1.42850106 1.42875369
 1.42900811 1.42926431 1.42952229 1.42978205 1.43004359 1.43030689
 1.43057196 1.4308388  1.43110739 1.43137773 1.43164983 1.43192367
 1.43219925 1.43247657 1.43275563 1.43303642 1.43331893 1.43360317
 1.43388913 1.43417681 1.4344662  1.4347573  1.4350501  1.4353446
 1.43564081 1.4359387  1.43623829 1.43653957 1.43684252 1.43714716
 1.43745348 1.43776146 1.43807112 1.43838244 1.43869543 1.43901007
 1.43932637 1.43964432 1.43996392 1.44028516 1.44060805 1.44093257
 1.44125873 1.44158652 1.44191593 1.44224697 1.44257964 1.44291392
 1.44324981 1.44358732 1.44392643 1.44426715 1.44460947 1.44495339
 1.4452989  1.445646   1.4459947  1.44634498 1.44669683 1.44705027
 1.44740529 1.44776187 1.44812003 1.44847975 1.44884104 1.44920388
 1.44956829 1.44993424 1.45030175 1.4506708  1.4510414  1.45141354
 1.45178722 1.45216244 1.45253919 1.45291747 1.45329727 1.4536786
 1.45406145 1.45444581 1.45483169 1.45521909 1.45560799 1.4559984
 1.45639031 1.45678373 1.45717864 1.45757504 1.45797294 1.45837233
 1.45877321 1.45917556 1.4595794  1.45998472 1.46039151 1.46079978
 1.46120951 1.46162072 1.46203338 1.46244751 1.4628631  1.46328015
 1.46369865 1.4641186  1.46454    1.46496285 1.46538714 1.46581287
 1.46624004 1.46666865 1.46709868 1.46753015 1.46796305 1.46839738
 1.46883313 1.46927029 1.46970888 1.47014888 1.4705903  1.47103313
 1.47147736 1.47192301 1.47237005 1.4728185  1.47326835 1.47371959
 1.47417223 1.47462626 1.47508168 1.47553848 1.47599668 1.47645625
 1.47691721 1.47737954 1.47784325 1.47830833 1.47877479 1.47924261
 1.4797118  1.48018236 1.48065428 1.48112756 1.4816022  1.48207819
 1.48255554 1.48303424 1.48351429 1.48399569 1.48447843 1.48496252
 1.48544795 1.48593472 1.48642282 1.48691226 1.48740304 1.48789514
 1.48838858 1.48888334 1.48937943 1.48987684 1.49037557 1.49087562
 1.49137699 1.49187968 1.49238368 1.49288899 1.49339561 1.49390354
 1.49441277 1.49492331 1.49543515 1.49594829 1.49646274 1.49697847
 1.49749551 1.49801383 1.49853345 1.49905436 1.49957656 1.50010004
 1.50062481 1.50115086 1.50167819 1.50220681 1.5027367  1.50326786
 1.5038003  1.50433402 1.504869   1.50540526 1.50594278 1.50648157
 1.50702162 1.50756294 1.50810552 1.50864936 1.50919446 1.50974081
 1.51028842 1.51083729 1.5113874  1.51193877 1.51249139 1.51304525
 1.51360036 1.51415672 1.51471432 1.51527316 1.51583325 1.51639457
 1.51695713 1.51752093 1.51808596 1.51865223 1.51921973 1.51978846
 1.52035842 1.52092961 1.52150203 1.52207567 1.52265053 1.52322663
 1.52380394 1.52438247 1.52496222 1.52554319 1.52612538 1.52670879
 1.52729341 1.52787924 1.52846628 1.52905454 1.52964401 1.53023468
 1.53082656 1.53141965 1.53201395 1.53260945 1.53320615 1.53380405
 1.53440316 1.53500347 1.53560497 1.53620767 1.53681157 1.53741667
 1.53802296 1.53863045 1.53923912 1.53984899 1.54046005 1.54107231
 1.54168575 1.54230037 1.54291619 1.54353319 1.54415138 1.54477075
 1.54539131 1.54601304 1.54663596 1.54726007 1.54788535 1.54851181
 1.54913945 1.54976827 1.55039826 1.55102943 1.55166178 1.5522953
 1.55292999 1.55356586 1.5542029  1.55484112 1.5554805  1.55612105
 1.55676278 1.55740567 1.55804973 1.55869496 1.55934135 1.55998892
 1.56063764 1.56128754 1.5619386  1.56259082 1.5632442  1.56389875
 1.56455446 1.56521133 1.56586936 1.56652856 1.56718891 1.56785042
 1.5685131  1.56917693 1.56984192 1.57050806]
t = [1.09637775e+09 1.09637781e+09 1.09637788e+09 1.09637794e+09
 1.09637800e+09 1.09637806e+09 1.09637813e+09 1.09637819e+09
 1.09637825e+09 1.09637832e+09 1.09637838e+09 1.09637844e+09
 1.09637851e+09 1.09637857e+09 1.09637863e+09 1.09637869e+09
 1.09637876e+09 1.09637882e+09 1.09637888e+09 1.09637895e+09
 1.09637901e+09 1.09637907e+09 1.09637913e+09 1.09637920e+09
 1.09637926e+09 1.09637932e+09 1.09637939e+09 1.09637945e+09
 1.09637951e+09 1.09637957e+09 1.09637964e+09 1.09637970e+09
 1.09637976e+09 1.09637983e+09 1.09637989e+09 1.09637995e+09
 1.09638002e+09 1.09638008e+09 1.09638014e+09 1.09638020e+09
 1.09638027e+09 1.09638033e+09 1.09638039e+09 1.09638046e+09
 1.09638052e+09 1.09638058e+09 1.09638064e+09 1.09638071e+09
 1.09638077e+09 1.09638083e+09 1.09638090e+09 1.09638096e+09
 1.09638102e+09 1.09638108e+09 1.09638115e+09 1.09638121e+09
 1.09638127e+09 1.09638134e+09 1.09638140e+09 1.09638146e+09
 1.09638152e+09 1.09638159e+09 1.09638165e+09 1.09638171e+09
 1.09638178e+09 1.09638184e+09 1.09638190e+09 1.09638197e+09
 1.09638203e+09 1.09638209e+09 1.09638215e+09 1.09638222e+09
 1.09638228e+09 1.09638234e+09 1.09638241e+09 1.09638247e+09
 1.09638253e+09 1.09638259e+09 1.09638266e+09 1.09638272e+09
 1.09638278e+09 1.09638285e+09 1.09638291e+09 1.09638297e+09
 1.09638303e+09 1.09638310e+09 1.09638316e+09 1.09638322e+09
 1.09638329e+09 1.09638335e+09 1.09638341e+09 1.09638348e+09
 1.09638354e+09 1.09638360e+09 1.09638366e+09 1.09638373e+09
 1.09638379e+09 1.09638385e+09 1.09638392e+09 1.09638398e+09
 1.09638404e+09 1.09638410e+09 1.09638417e+09 1.09638423e+09
 1.09638429e+09 1.09638436e+09 1.09638442e+09 1.09638448e+09
 1.09638454e+09 1.09638461e+09 1.09638467e+09 1.09638473e+09
 1.09638480e+09 1.09638486e+09 1.09638492e+09 1.09638499e+09
 1.09638505e+09 1.09638511e+09 1.09638517e+09 1.09638524e+09
 1.09638530e+09 1.09638536e+09 1.09638543e+09 1.09638549e+09
 1.09638555e+09 1.09638561e+09 1.09638568e+09 1.09638574e+09
 1.09638580e+09 1.09638587e+09 1.09638593e+09 1.09638599e+09
 1.09638605e+09 1.09638612e+09 1.09638618e+09 1.09638624e+09
 1.09638631e+09 1.09638637e+09 1.09638643e+09 1.09638650e+09
 1.09638656e+09 1.09638662e+09 1.09638668e+09 1.09638675e+09
 1.09638681e+09 1.09638687e+09 1.09638694e+09 1.09638700e+09
 1.09638706e+09 1.09638712e+09 1.09638719e+09 1.09638725e+09
 1.09638731e+09 1.09638738e+09 1.09638744e+09 1.09638750e+09
 1.09638756e+09 1.09638763e+09 1.09638769e+09 1.09638775e+09
 1.09638782e+09 1.09638788e+09 1.09638794e+09 1.09638800e+09
 1.09638807e+09 1.09638813e+09 1.09638819e+09 1.09638826e+09
 1.09638832e+09 1.09638838e+09 1.09638845e+09 1.09638851e+09
 1.09638857e+09 1.09638863e+09 1.09638870e+09 1.09638876e+09
 1.09638882e+09 1.09638889e+09 1.09638895e+09 1.09638901e+09
 1.09638907e+09 1.09638914e+09 1.09638920e+09 1.09638926e+09
 1.09638933e+09 1.09638939e+09 1.09638945e+09 1.09638951e+09
 1.09638958e+09 1.09638964e+09 1.09638970e+09 1.09638977e+09
 1.09638983e+09 1.09638989e+09 1.09638996e+09 1.09639002e+09
 1.09639008e+09 1.09639014e+09 1.09639021e+09 1.09639027e+09
 1.09639033e+09 1.09639040e+09 1.09639046e+09 1.09639052e+09
 1.09639058e+09 1.09639065e+09 1.09639071e+09 1.09639077e+09
 1.09639084e+09 1.09639090e+09 1.09639096e+09 1.09639102e+09
 1.09639109e+09 1.09639115e+09 1.09639121e+09 1.09639128e+09
 1.09639134e+09 1.09639140e+09 1.09639147e+09 1.09639153e+09
 1.09639159e+09 1.09639165e+09 1.09639172e+09 1.09639178e+09
 1.09639184e+09 1.09639191e+09 1.09639197e+09 1.09639203e+09
 1.09639209e+09 1.09639216e+09 1.09639222e+09 1.09639228e+09
 1.09639235e+09 1.09639241e+09 1.09639247e+09 1.09639253e+09
 1.09639260e+09 1.09639266e+09 1.09639272e+09 1.09639279e+09
 1.09639285e+09 1.09639291e+09 1.09639298e+09 1.09639304e+09
 1.09639310e+09 1.09639316e+09 1.09639323e+09 1.09639329e+09
 1.09639335e+09 1.09639342e+09 1.09639348e+09 1.09639354e+09
 1.09639360e+09 1.09639367e+09 1.09639373e+09 1.09639379e+09
 1.09639386e+09 1.09639392e+09 1.09639398e+09 1.09639404e+09
 1.09639411e+09 1.09639417e+09 1.09639423e+09 1.09639430e+09
 1.09639436e+09 1.09639442e+09 1.09639449e+09 1.09639455e+09
 1.09639461e+09 1.09639467e+09 1.09639474e+09 1.09639480e+09
 1.09639486e+09 1.09639493e+09 1.09639499e+09 1.09639505e+09
 1.09639511e+09 1.09639518e+09 1.09639524e+09 1.09639530e+09
 1.09639537e+09 1.09639543e+09 1.09639549e+09 1.09639555e+09
 1.09639562e+09 1.09639568e+09 1.09639574e+09 1.09639581e+09
 1.09639587e+09 1.09639593e+09 1.09639599e+09 1.09639606e+09
 1.09639612e+09 1.09639618e+09 1.09639625e+09 1.09639631e+09
 1.09639637e+09 1.09639644e+09 1.09639650e+09 1.09639656e+09
 1.09639662e+09 1.09639669e+09 1.09639675e+09 1.09639681e+09
 1.09639688e+09 1.09639694e+09 1.09639700e+09 1.09639706e+09
 1.09639713e+09 1.09639719e+09 1.09639725e+09 1.09639732e+09
 1.09639738e+09 1.09639744e+09 1.09639750e+09 1.09639757e+09
 1.09639763e+09 1.09639769e+09 1.09639776e+09 1.09639782e+09
 1.09639788e+09 1.09639795e+09 1.09639801e+09 1.09639807e+09
 1.09639813e+09 1.09639820e+09 1.09639826e+09 1.09639832e+09
 1.09639839e+09 1.09639845e+09 1.09639851e+09 1.09639857e+09
 1.09639864e+09 1.09639870e+09 1.09639876e+09 1.09639883e+09
 1.09639889e+09 1.09639895e+09 1.09639901e+09 1.09639908e+09
 1.09639914e+09 1.09639920e+09 1.09639927e+09 1.09639933e+09
 1.09639939e+09 1.09639946e+09 1.09639952e+09 1.09639958e+09
 1.09639964e+09 1.09639971e+09 1.09639977e+09 1.09639983e+09
 1.09639990e+09 1.09639996e+09 1.09640002e+09 1.09640008e+09
 1.09640015e+09 1.09640021e+09 1.09640027e+09 1.09640034e+09
 1.09640040e+09 1.09640046e+09 1.09640052e+09 1.09640059e+09
 1.09640065e+09 1.09640071e+09 1.09640078e+09 1.09640084e+09
 1.09640090e+09 1.09640097e+09 1.09640103e+09 1.09640109e+09
 1.09640115e+09 1.09640122e+09 1.09640128e+09 1.09640134e+09
 1.09640141e+09 1.09640147e+09 1.09640153e+09 1.09640159e+09
 1.09640166e+09 1.09640172e+09 1.09640178e+09 1.09640185e+09
 1.09640191e+09 1.09640197e+09 1.09640203e+09 1.09640210e+09
 1.09640216e+09 1.09640222e+09 1.09640229e+09 1.09640235e+09
 1.09640241e+09 1.09640247e+09 1.09640254e+09 1.09640260e+09
 1.09640266e+09 1.09640273e+09 1.09640279e+09 1.09640285e+09
 1.09640292e+09 1.09640298e+09 1.09640304e+09 1.09640310e+09
 1.09640317e+09 1.09640323e+09 1.09640329e+09 1.09640336e+09
 1.09640342e+09 1.09640348e+09 1.09640354e+09 1.09640361e+09
 1.09640367e+09 1.09640373e+09 1.09640380e+09 1.09640386e+09
 1.09640392e+09 1.09640398e+09 1.09640405e+09 1.09640411e+09
 1.09640417e+09 1.09640424e+09 1.09640430e+09 1.09640436e+09
 1.09640443e+09 1.09640449e+09 1.09640455e+09 1.09640461e+09
 1.09640468e+09 1.09640474e+09 1.09640480e+09 1.09640487e+09
 1.09640493e+09 1.09640499e+09 1.09640505e+09 1.09640512e+09
 1.09640518e+09 1.09640524e+09 1.09640531e+09 1.09640537e+09
 1.09640543e+09 1.09640549e+09 1.09640556e+09 1.09640562e+09
 1.09640568e+09 1.09640575e+09 1.09640581e+09 1.09640587e+09
 1.09640594e+09 1.09640600e+09 1.09640606e+09 1.09640612e+09
 1.09640619e+09 1.09640625e+09 1.09640631e+09 1.09640638e+09
 1.09640644e+09 1.09640650e+09 1.09640656e+09 1.09640663e+09
 1.09640669e+09 1.09640675e+09 1.09640682e+09 1.09640688e+09
 1.09640694e+09 1.09640700e+09 1.09640707e+09 1.09640713e+09
 1.09640719e+09 1.09640726e+09 1.09640732e+09 1.09640738e+09
 1.09640745e+09 1.09640751e+09 1.09640757e+09 1.09640763e+09
 1.09640770e+09 1.09640776e+09 1.09640782e+09 1.09640789e+09
 1.09640795e+09 1.09640801e+09 1.09640807e+09 1.09640814e+09
 1.09640820e+09 1.09640826e+09 1.09640833e+09 1.09640839e+09
 1.09640845e+09 1.09640851e+09 1.09640858e+09 1.09640864e+09
 1.09640870e+09 1.09640877e+09 1.09640883e+09 1.09640889e+09
 1.09640895e+09 1.09640902e+09 1.09640908e+09 1.09640914e+09
 1.09640921e+09 1.09640927e+09 1.09640933e+09 1.09640940e+09
 1.09640946e+09 1.09640952e+09 1.09640958e+09 1.09640965e+09
 1.09640971e+09 1.09640977e+09 1.09640984e+09 1.09640990e+09
 1.09640996e+09 1.09641002e+09 1.09641009e+09 1.09641015e+09
 1.09641021e+09 1.09641028e+09 1.09641034e+09 1.09641040e+09
 1.09641046e+09 1.09641053e+09 1.09641059e+09 1.09641065e+09
 1.09641072e+09 1.09641078e+09 1.09641084e+09 1.09641091e+09
 1.09641097e+09 1.09641103e+09 1.09641109e+09 1.09641116e+09
 1.09641122e+09 1.09641128e+09 1.09641135e+09 1.09641141e+09
 1.09641147e+09 1.09641153e+09 1.09641160e+09 1.09641166e+09
 1.09641172e+09 1.09641179e+09 1.09641185e+09 1.09641191e+09
 1.09641197e+09 1.09641204e+09 1.09641210e+09 1.09641216e+09
 1.09641223e+09 1.09641229e+09 1.09641235e+09 1.09641242e+09
 1.09641248e+09 1.09641254e+09 1.09641260e+09 1.09641267e+09
 1.09641273e+09 1.09641279e+09 1.09641286e+09 1.09641292e+09
