name =JUICE_ROI_GAN_4_2_07
flyby = ['2034 SEP 07 06:03:51', '2034 SEP 08 06:03:51']
Observation TW = <SpiceCell dtype = 1, length = 0, size = 3200, card = 12, is_set = 1, adjust = 0, init = 1, base = 94677679225328, data = 94677679225376>
Res(t) = [2.08238924 2.07922516 2.07606408 2.07290602 2.06975098 2.06659899
 2.06345005 2.06030419 2.0571614  2.05402172 2.05088515 2.0477517
 2.04462139 2.04149424 2.03837026 2.03524945 2.03213185 2.02901745
 2.02590628 2.02279835 2.01969367 2.01659226 2.01349413 2.01039929
 2.00730777 2.00421957 2.00113471 1.99805321 1.99497507 1.99190031
 1.98882895 1.985761   1.98269648 1.9796354  1.97657777 1.97352361
 1.97047294 1.96742576 1.9643821  1.96134196 1.95830537 1.95527233
 1.95224287 1.94921699 1.94619471 1.94317605 1.94016102 1.93714964
 1.93414191 1.93113786 1.9281375  1.92514084 1.9221479  1.9191587
 1.91617324 1.91319155 1.91021364 1.90723952 1.9042692  1.90130271
 1.89834006 1.89538126 1.89242633 1.88947528 1.88652812 1.88358488
 1.88064557 1.8777102  1.87477878 1.87185134 1.86892788 1.86600843
 1.86309299 1.86018158 1.85727421 1.85437091 1.85147169 1.84857655
 1.84568552 1.84279861 1.83991584 1.83703721 1.83416276 1.83129248
 1.82842639 1.82556452 1.82270687 1.81985346 1.8170043  1.81415941
 1.81131881 1.8084825  1.80565051 1.80282284 1.79999952 1.79718056
 1.79436596 1.79155576 1.78874995 1.78594857 1.78315161 1.7803591
 1.77757105 1.77478747 1.77200838 1.7692338  1.76646374 1.76369821
 1.76093722 1.7581808  1.75542896 1.7526817  1.74993906 1.74720103
 1.74446763 1.74173889 1.73901481 1.7362954  1.73358069 1.73087068
 1.7281654  1.72546485 1.72276904 1.720078   1.71739174 1.71471027
 1.7120336  1.70936175 1.70669474 1.70403257 1.70137526 1.69872283
 1.69607529 1.69343265 1.69079493 1.68816214 1.68553429 1.6829114
 1.68029348 1.67768055 1.67507261 1.67246969 1.66987179 1.66727893
 1.66469113 1.66210839 1.65953073 1.65695817 1.65439071 1.65182837
 1.64927116 1.6467191  1.6441722  1.64163047 1.63909392 1.63656257
 1.63403644 1.63151552 1.62899985 1.62648942 1.62398426 1.62148437
 1.61898976 1.61650046 1.61401647 1.61153781 1.60906448 1.6065965
 1.60413389 1.60167665 1.5992248  1.59677834 1.5943373  1.59190168
 1.5894715  1.58704676 1.58462748 1.58221367 1.57980535 1.57740252
 1.57500519 1.57261339 1.57022711 1.56784638 1.56547119 1.56310157
 1.56073753 1.55837907 1.55602621 1.55367896 1.55133732 1.54900132
 1.54667096 1.54434625 1.54202721 1.53971384 1.53740615 1.53510416
 1.53280788 1.53051731 1.52823247 1.52595336 1.52368    1.52141241
 1.51915057 1.51689452 1.51464426 1.51239979 1.51016113 1.50792829
 1.50570127 1.50348009 1.50126476 1.49905529 1.49685168 1.49465394
 1.49246209 1.49027613 1.48809608 1.48592193 1.48375371 1.48159142
 1.47943506 1.47728466 1.47514021 1.47300172 1.4708692  1.46874267
 1.46662213 1.46450759 1.46239905 1.46029653 1.45820003 1.45610956
 1.45402513 1.45194674 1.44987442 1.44780815 1.44574795 1.44369383
 1.4416458  1.43960385 1.43756801 1.43553827 1.43351465 1.43149715
 1.42948577 1.42748053 1.42548143 1.42348848 1.42150168 1.41952105
 1.41754658 1.41557829 1.41361618 1.41166025 1.40971052 1.40776699
 1.40582966 1.40389854 1.40197364 1.40005496 1.39814251 1.39623629
 1.39433631 1.39244258 1.39055509 1.38867386 1.38679889 1.38493019
 1.38306775 1.38121159 1.37936171 1.37751811 1.37568081 1.37384979
 1.37202507 1.37020666 1.36839455 1.36658875 1.36478926 1.3629961
 1.36120925 1.35942874 1.35765455 1.35588669 1.35412517 1.35237
 1.35062116 1.34887868 1.34714254 1.34541276 1.34368933 1.34197226
 1.34026156 1.33855722 1.33685924 1.33516764 1.33348241 1.33180355
 1.33013108 1.32846498 1.32680526 1.32515192 1.32350498 1.32186441
 1.32023024 1.31860246 1.31698107 1.31536608 1.31375748 1.31215527
 1.31055947 1.30897006 1.30738706 1.30581045 1.30424025 1.30267645
 1.30111905 1.29956805 1.29802347 1.29648528 1.2949535  1.29342813
 1.29190916 1.2903966  1.28889045 1.2873907  1.28589735 1.28441041
 1.28292988 1.28145575 1.27998803 1.2785267  1.27707179 1.27562327
 1.27418115 1.27274544 1.27131612 1.2698932  1.26847668 1.26706655
 1.26566282 1.26426548 1.26287453 1.26148997 1.2601118  1.25874001
 1.25737461 1.25601559 1.25466295 1.25331669 1.2519768  1.25064329
 1.24931615 1.24799537 1.24668097 1.24537292 1.24407124 1.24277591
 1.24148694 1.24020431 1.23892804 1.23765812 1.23639453 1.23513729
 1.23388638 1.2326418  1.23140355 1.23017163 1.22894603 1.22772674
 1.22651377 1.22530711 1.22410676 1.2229127  1.22172495 1.22054348
 1.21936831 1.21819942 1.21703681 1.21588048 1.21473042 1.21358662
 1.21244909 1.21131781 1.21019278 1.209074   1.20796146 1.20685516
 1.20575508 1.20466124 1.20357361 1.2024922  1.201417   1.200348
 1.1992852  1.1982286  1.19717818 1.19613394 1.19509587 1.19406398
 1.19303824 1.19201866 1.19100524 1.18999795 1.18899681 1.18800179
 1.1870129  1.18603013 1.18505347 1.18408291 1.18311846 1.18216009
 1.18120781 1.1802616  1.17932146 1.17838739 1.17745937 1.1765374
 1.17562148 1.17471158 1.17380772 1.17290987 1.17201803 1.1711322
 1.17025236 1.16937851 1.16851064 1.16764875 1.16679282 1.16594284
 1.16509882 1.16426074 1.16342858 1.16260236 1.16178205 1.16096764
 1.16015914 1.15935653 1.1585598  1.15776894 1.15698395 1.15620482
 1.15543153 1.15466408 1.15390247 1.15314667 1.15239669 1.15165251
 1.15091413 1.15018153 1.1494547  1.14873365 1.14801835 1.1473088
 1.14660499 1.14590692 1.14521456 1.14452791 1.14384696 1.14317171
 1.14250214 1.14183824 1.14118    1.14052742 1.13988048 1.13923917
 1.13860349 1.13797342 1.13734896 1.13673009 1.1361168  1.13550909
 1.13490694 1.13431034 1.13371929 1.13313377 1.13255377 1.13197928
 1.1314103  1.1308468  1.13028879 1.12973625 1.12918917 1.12864753
 1.12811134 1.12758057 1.12705522 1.12653528 1.12602074 1.12551157
 1.12500779 1.12450936 1.12401629 1.12352856 1.12304616 1.12256908
 1.12209731 1.12163083 1.12116964 1.12071373 1.12026308 1.11981769
 1.11937753 1.11894261 1.11851291 1.11808841 1.11766911 1.117255
 1.11684606 1.11644228 1.11604365 1.11565016 1.11526181 1.11487856
 1.11450043 1.11412738 1.11375942 1.11339653 1.1130387  1.11268592
 1.11233817 1.11199544 1.11165773 1.11132502 1.1109973  1.11067455
 1.11035677 1.11004394 1.10973606 1.1094331  1.10913506 1.10884193
 1.10855369 1.10827034 1.10799185 1.10771822 1.10744944 1.1071855
 1.10692638 1.10667206 1.10642255 1.10617782 1.10593787 1.10570268
 1.10547223 1.10524653 1.10502556 1.10480929 1.10459773 1.10439086
 1.10418867 1.10399114 1.10379827 1.10361004 1.10342644 1.10324745
 1.10307307 1.10290328 1.10273807 1.10257743 1.10242135 1.10226981
 1.1021228  1.10198031 1.10184233 1.10170884 1.10157984 1.1014553
 1.10133523 1.1012196  1.1011084  1.10100162 1.10089926 1.10080129
 1.1007077  1.10061849 1.10053364 1.10045313 1.10037696 1.10030512
 1.10023758 1.10017435 1.1001154  1.10006072 1.10001031 1.09996414
 1.09992222 1.09988451 1.09985102 1.09982174 1.09979663 1.09977571
 1.09975895 1.09974634 1.09973787 1.09973353 1.0997333  1.09973718
 1.09974514 1.09975718 1.09977329 1.09979346 1.09981766 1.0998459
 1.09987815 1.0999144  1.09995465 1.09999888 1.10004708 1.10009924
 1.10015534 1.10021537 1.10027932 1.10034718 1.10041894 1.10049458
 1.10057409 1.10065746 1.10074468 1.10083574 1.10093061 1.1010293
 1.10113179 1.10123807 1.10134812 1.10146194 1.1015795  1.10170081
 1.10182585 1.1019546  1.10208705 1.1022232  1.10236303 1.10250652
 1.10265367 1.10280447 1.1029589  1.10311695 1.10327861 1.10344387
 1.10361271 1.10378513 1.10396111 1.10414064 1.1043237  1.1045103
 1.10470041 1.10489403 1.10509113 1.10529172 1.10549578 1.10570329
 1.10591426 1.10612865 1.10634647 1.1065677  1.10679233 1.10702035
 1.10725174 1.1074865  1.10772462 1.10796608 1.10821086 1.10845897
 1.10871039 1.10896511 1.10922311 1.10948439 1.10974893 1.11001672
 1.11028776 1.11056202 1.11083951 1.1111202  1.11140409 1.11169117
 1.11198142 1.11227483 1.1125714  1.1128711  1.11317394 1.1134799
 1.11378897 1.11410113 1.11441639 1.11473471 1.11505611 1.11538056
 1.11570805 1.11603857 1.11637212 1.11670868 1.11704824 1.11739079
 1.11773632 1.11808482 1.11843627 1.11879068 1.11914802 1.11950829
 1.11987147 1.12023756 1.12060655 1.12097842 1.12135317 1.12173078
 1.12211124 1.12249455 1.12288069 1.12326965 1.12366142 1.124056
 1.12445337 1.12485353 1.12525645 1.12566214 1.12607058 1.12648176
 1.12689567 1.12731231 1.12773165 1.1281537  1.12857844 1.12900586
 1.12943596 1.12986872 1.13030413 1.13074218 1.13118286 1.13162617
 1.1320721  1.13252062 1.13297175 1.13342545 1.13388173 1.13434058
 1.13480198 1.13526594 1.13573242 1.13620144 1.13667297 1.13714701
 1.13762356 1.13810259 1.1385841  1.13906809 1.13955453 1.14004344
 1.14053478 1.14102856 1.14152477 1.14202339 1.14252442 1.14302785
 1.14353367 1.14404187 1.14455244 1.14506537 1.14558066 1.14609829
 1.14661826 1.14714056 1.14766517 1.1481921  1.14872132 1.14925284
 1.14978664 1.15032272 1.15086106 1.15140167 1.15194452 1.15248961
 1.15303694 1.15358649 1.15413825 1.15469222 1.15524839 1.15580676
 1.1563673  1.15693002 1.1574949  1.15806194 1.15863113 1.15920247
 1.15977593 1.16035152 1.16092923 1.16150905 1.16209096 1.16267497
 1.16326107 1.16384924 1.16443948 1.16503178 1.16562614 1.16622254
 1.16682098 1.16742145 1.16802395 1.16862846 1.16923497 1.16984349
 1.17045399 1.17106649 1.17168095 1.17229739 1.17291579 1.17353615
 1.17415845 1.17478269 1.17540887 1.17603697 1.17666699 1.17729891
 1.17793275 1.17856848 1.17920609 1.17984559 1.18048697 1.18113021
 1.18177531 1.18242227 1.18307107 1.18372172 1.1843742  1.1850285
 1.18568462 1.18634256 1.1870023  1.18766383 1.18832717 1.18899228
 1.18965918 1.19032784 1.19099828 1.19167047 1.19234441 1.1930201
 1.19369753 1.19437669 1.19505758 1.19574019 1.19642451 1.19711054
 1.19779827 1.19848769 1.1991788  1.1998716  1.20056607 1.20126221
 1.20196001 1.20265947 1.20336059 1.20406334 1.20476774 1.20547377
 1.20618143 1.20689071 1.2076016  1.20831411 1.20902822 1.20974392
 1.21046122 1.2111801  1.21190057 1.21262261 1.21334622 1.21407139
 1.21479812 1.21552641 1.21625624 1.21698761 1.21772052 1.21845496
 1.21919092 1.2199284  1.2206674  1.22140791 1.22214991 1.22289342
 1.22363842 1.22438491 1.22513288 1.22588233 1.22663325 1.22738564
 1.22813949 1.22889479 1.22965155 1.23040975 1.2311694  1.23193048
 1.232693   1.23345694 1.23422231 1.23498909 1.23575728 1.23652689
 1.23729789 1.2380703  1.23884409 1.23961928 1.24039585 1.2411738
 1.24195313 1.24273382 1.24351589 1.24429931 1.24508409 1.24587023
 1.24665771 1.24744653 1.2482367  1.2490282  1.24982103 1.25061519
 1.25141067 1.25220747 1.25300558 1.25380501 1.25460573 1.25540776
 1.25621109 1.25701571 1.25782162 1.25862882 1.2594373  1.26024705
 1.26105808 1.26187038 1.26268394 1.26349877 1.26431485 1.26513219
 1.26595078 1.26677062 1.2675917  1.26841402 1.26923757 1.27006236
 1.27088838 1.27171562 1.27254408 1.27337377 1.27420466 1.27503677
 1.27587009 1.27670461 1.27754033 1.27837725 1.27921536 1.28005467
 1.28089516 1.28173684 1.2825797  1.28342374 1.28426895 1.28511534
 1.28596289 1.28681161 1.28766149 1.28851253 1.28936473 1.29021809
 1.29107259 1.29192824 1.29278504 1.29364298 1.29450206 1.29536228
 1.29622363 1.29708611 1.29794972 1.29881445 1.29968031 1.30054729
 1.30141538 1.30228459 1.30315492 1.30402635 1.30489889 1.30577254
 1.30664728 1.30752313 1.30840008 1.30927812 1.31015725 1.31103748
 1.31191879 1.31280119 1.31368467 1.31456924 1.31545488 1.3163416
 1.31722939 1.31811826 1.3190082  1.3198992 ]
t = [1.09449390e+09 1.09449399e+09 1.09449407e+09 1.09449416e+09
 1.09449425e+09 1.09449433e+09 1.09449442e+09 1.09449451e+09
 1.09449459e+09 1.09449468e+09 1.09449477e+09 1.09449485e+09
 1.09449494e+09 1.09449502e+09 1.09449511e+09 1.09449520e+09
 1.09449528e+09 1.09449537e+09 1.09449546e+09 1.09449554e+09
 1.09449563e+09 1.09449572e+09 1.09449580e+09 1.09449589e+09
 1.09449598e+09 1.09449606e+09 1.09449615e+09 1.09449624e+09
 1.09449632e+09 1.09449641e+09 1.09449649e+09 1.09449658e+09
 1.09449667e+09 1.09449675e+09 1.09449684e+09 1.09449693e+09
 1.09449701e+09 1.09449710e+09 1.09449719e+09 1.09449727e+09
 1.09449736e+09 1.09449745e+09 1.09449753e+09 1.09449762e+09
 1.09449771e+09 1.09449779e+09 1.09449788e+09 1.09449797e+09
 1.09449805e+09 1.09449814e+09 1.09449822e+09 1.09449831e+09
 1.09449840e+09 1.09449848e+09 1.09449857e+09 1.09449866e+09
 1.09449874e+09 1.09449883e+09 1.09449892e+09 1.09449900e+09
 1.09449909e+09 1.09449918e+09 1.09449926e+09 1.09449935e+09
 1.09449944e+09 1.09449952e+09 1.09449961e+09 1.09449969e+09
 1.09449978e+09 1.09449987e+09 1.09449995e+09 1.09450004e+09
 1.09450013e+09 1.09450021e+09 1.09450030e+09 1.09450039e+09
 1.09450047e+09 1.09450056e+09 1.09450065e+09 1.09450073e+09
 1.09450082e+09 1.09450091e+09 1.09450099e+09 1.09450108e+09
 1.09450117e+09 1.09450125e+09 1.09450134e+09 1.09450142e+09
 1.09450151e+09 1.09450160e+09 1.09450168e+09 1.09450177e+09
 1.09450186e+09 1.09450194e+09 1.09450203e+09 1.09450212e+09
 1.09450220e+09 1.09450229e+09 1.09450238e+09 1.09450246e+09
 1.09450255e+09 1.09450264e+09 1.09450272e+09 1.09450281e+09
 1.09450289e+09 1.09450298e+09 1.09450307e+09 1.09450315e+09
 1.09450324e+09 1.09450333e+09 1.09450341e+09 1.09450350e+09
 1.09450359e+09 1.09450367e+09 1.09450376e+09 1.09450385e+09
 1.09450393e+09 1.09450402e+09 1.09450411e+09 1.09450419e+09
 1.09450428e+09 1.09450437e+09 1.09450445e+09 1.09450454e+09
 1.09450462e+09 1.09450471e+09 1.09450480e+09 1.09450488e+09
 1.09450497e+09 1.09450506e+09 1.09450514e+09 1.09450523e+09
 1.09450532e+09 1.09450540e+09 1.09450549e+09 1.09450558e+09
 1.09450566e+09 1.09450575e+09 1.09450584e+09 1.09450592e+09
 1.09450601e+09 1.09450609e+09 1.09450618e+09 1.09450627e+09
 1.09450635e+09 1.09450644e+09 1.09450653e+09 1.09450661e+09
 1.09450670e+09 1.09450679e+09 1.09450687e+09 1.09450696e+09
 1.09450705e+09 1.09450713e+09 1.09450722e+09 1.09450731e+09
 1.09450739e+09 1.09450748e+09 1.09450757e+09 1.09450765e+09
 1.09450774e+09 1.09450782e+09 1.09450791e+09 1.09450800e+09
 1.09450808e+09 1.09450817e+09 1.09450826e+09 1.09450834e+09
 1.09450843e+09 1.09450852e+09 1.09450860e+09 1.09450869e+09
 1.09450878e+09 1.09450886e+09 1.09450895e+09 1.09450904e+09
 1.09450912e+09 1.09450921e+09 1.09450929e+09 1.09450938e+09
 1.09450947e+09 1.09450955e+09 1.09450964e+09 1.09450973e+09
 1.09450981e+09 1.09450990e+09 1.09450999e+09 1.09451007e+09
 1.09451016e+09 1.09451025e+09 1.09451033e+09 1.09451042e+09
 1.09451051e+09 1.09451059e+09 1.09451068e+09 1.09451077e+09
 1.09451085e+09 1.09451094e+09 1.09451102e+09 1.09451111e+09
 1.09451120e+09 1.09451128e+09 1.09451137e+09 1.09451146e+09
 1.09451154e+09 1.09451163e+09 1.09451172e+09 1.09451180e+09
 1.09451189e+09 1.09451198e+09 1.09451206e+09 1.09451215e+09
 1.09451224e+09 1.09451232e+09 1.09451241e+09 1.09451249e+09
 1.09451258e+09 1.09451267e+09 1.09451275e+09 1.09451284e+09
 1.09451293e+09 1.09451301e+09 1.09451310e+09 1.09451319e+09
 1.09451327e+09 1.09451336e+09 1.09451345e+09 1.09451353e+09
 1.09451362e+09 1.09451371e+09 1.09451379e+09 1.09451388e+09
 1.09451397e+09 1.09451405e+09 1.09451414e+09 1.09451422e+09
 1.09451431e+09 1.09451440e+09 1.09451448e+09 1.09451457e+09
 1.09451466e+09 1.09451474e+09 1.09451483e+09 1.09451492e+09
 1.09451500e+09 1.09451509e+09 1.09451518e+09 1.09451526e+09
 1.09451535e+09 1.09451544e+09 1.09451552e+09 1.09451561e+09
 1.09451569e+09 1.09451578e+09 1.09451587e+09 1.09451595e+09
 1.09451604e+09 1.09451613e+09 1.09451621e+09 1.09451630e+09
 1.09451639e+09 1.09451647e+09 1.09451656e+09 1.09451665e+09
 1.09451673e+09 1.09451682e+09 1.09451691e+09 1.09451699e+09
 1.09451708e+09 1.09451717e+09 1.09451725e+09 1.09451734e+09
 1.09451742e+09 1.09451751e+09 1.09451760e+09 1.09451768e+09
 1.09451777e+09 1.09451786e+09 1.09451794e+09 1.09451803e+09
 1.09451812e+09 1.09451820e+09 1.09451829e+09 1.09451838e+09
 1.09451846e+09 1.09451855e+09 1.09451864e+09 1.09451872e+09
 1.09451881e+09 1.09451889e+09 1.09451898e+09 1.09451907e+09
 1.09451915e+09 1.09451924e+09 1.09451933e+09 1.09451941e+09
 1.09451950e+09 1.09451959e+09 1.09451967e+09 1.09451976e+09
 1.09451985e+09 1.09451993e+09 1.09452002e+09 1.09452011e+09
 1.09452019e+09 1.09452028e+09 1.09452037e+09 1.09452045e+09
 1.09452054e+09 1.09452062e+09 1.09452071e+09 1.09452080e+09
 1.09452088e+09 1.09452097e+09 1.09452106e+09 1.09452114e+09
 1.09452123e+09 1.09452132e+09 1.09452140e+09 1.09452149e+09
 1.09452158e+09 1.09452166e+09 1.09452175e+09 1.09452184e+09
 1.09452192e+09 1.09452201e+09 1.09452209e+09 1.09452218e+09
 1.09452227e+09 1.09452235e+09 1.09452244e+09 1.09452253e+09
 1.09452261e+09 1.09452270e+09 1.09452279e+09 1.09452287e+09
 1.09452296e+09 1.09452305e+09 1.09452313e+09 1.09452322e+09
 1.09452331e+09 1.09452339e+09 1.09452348e+09 1.09452357e+09
 1.09452365e+09 1.09452374e+09 1.09452382e+09 1.09452391e+09
 1.09452400e+09 1.09452408e+09 1.09452417e+09 1.09452426e+09
 1.09452434e+09 1.09452443e+09 1.09452452e+09 1.09452460e+09
 1.09452469e+09 1.09452478e+09 1.09452486e+09 1.09452495e+09
 1.09452504e+09 1.09452512e+09 1.09452521e+09 1.09452529e+09
 1.09452538e+09 1.09452547e+09 1.09452555e+09 1.09452564e+09
 1.09452573e+09 1.09452581e+09 1.09452590e+09 1.09452599e+09
 1.09452607e+09 1.09452616e+09 1.09452625e+09 1.09452633e+09
 1.09452642e+09 1.09452651e+09 1.09452659e+09 1.09452668e+09
 1.09452677e+09 1.09452685e+09 1.09452694e+09 1.09452702e+09
 1.09452711e+09 1.09452720e+09 1.09452728e+09 1.09452737e+09
 1.09452746e+09 1.09452754e+09 1.09452763e+09 1.09452772e+09
 1.09452780e+09 1.09452789e+09 1.09452798e+09 1.09452806e+09
 1.09452815e+09 1.09452824e+09 1.09452832e+09 1.09452841e+09
 1.09452849e+09 1.09452858e+09 1.09452867e+09 1.09452875e+09
 1.09452884e+09 1.09452893e+09 1.09452901e+09 1.09452910e+09
 1.09452919e+09 1.09452927e+09 1.09452936e+09 1.09452945e+09
 1.09452953e+09 1.09452962e+09 1.09452971e+09 1.09452979e+09
 1.09452988e+09 1.09452997e+09 1.09453005e+09 1.09453014e+09
 1.09453022e+09 1.09453031e+09 1.09453040e+09 1.09453048e+09
 1.09453057e+09 1.09453066e+09 1.09453074e+09 1.09453083e+09
 1.09453092e+09 1.09453100e+09 1.09453109e+09 1.09453118e+09
 1.09453126e+09 1.09453135e+09 1.09453144e+09 1.09453152e+09
 1.09453161e+09 1.09453169e+09 1.09453178e+09 1.09453187e+09
 1.09453195e+09 1.09453204e+09 1.09453213e+09 1.09453221e+09
 1.09453230e+09 1.09453239e+09 1.09453247e+09 1.09453256e+09
 1.09453265e+09 1.09453273e+09 1.09453282e+09 1.09453291e+09
 1.09453299e+09 1.09453308e+09 1.09453317e+09 1.09453325e+09
 1.09453334e+09 1.09453342e+09 1.09453351e+09 1.09453360e+09
 1.09453368e+09 1.09453377e+09 1.09453386e+09 1.09453394e+09
 1.09453403e+09 1.09453412e+09 1.09453420e+09 1.09453429e+09
 1.09453438e+09 1.09453446e+09 1.09453455e+09 1.09453464e+09
 1.09453472e+09 1.09453481e+09 1.09453489e+09 1.09453498e+09
 1.09453507e+09 1.09453515e+09 1.09453524e+09 1.09453533e+09
 1.09453541e+09 1.09453550e+09 1.09453559e+09 1.09453567e+09
 1.09453576e+09 1.09453585e+09 1.09453593e+09 1.09453602e+09
 1.09453611e+09 1.09453619e+09 1.09453628e+09 1.09453637e+09
 1.09453645e+09 1.09453654e+09 1.09453662e+09 1.09453671e+09
 1.09453680e+09 1.09453688e+09 1.09453697e+09 1.09453706e+09
 1.09453714e+09 1.09453723e+09 1.09453732e+09 1.09453740e+09
 1.09453749e+09 1.09453758e+09 1.09453766e+09 1.09453775e+09
 1.09453784e+09 1.09453792e+09 1.09453801e+09 1.09453809e+09
 1.09453818e+09 1.09453827e+09 1.09453835e+09 1.09453844e+09
 1.09453853e+09 1.09453861e+09 1.09453870e+09 1.09453879e+09
 1.09453887e+09 1.09453896e+09 1.09453905e+09 1.09453913e+09
 1.09453922e+09 1.09453931e+09 1.09453939e+09 1.09453948e+09
 1.09453957e+09 1.09453965e+09 1.09453974e+09 1.09453982e+09
 1.09453991e+09 1.09454000e+09 1.09454008e+09 1.09454017e+09
 1.09454026e+09 1.09454034e+09 1.09454043e+09 1.09454052e+09
 1.09454060e+09 1.09454069e+09 1.09454078e+09 1.09454086e+09
 1.09454095e+09 1.09454104e+09 1.09454112e+09 1.09454121e+09
 1.09454129e+09 1.09454138e+09 1.09454147e+09 1.09454155e+09
 1.09454164e+09 1.09454173e+09 1.09454181e+09 1.09454190e+09
 1.09454199e+09 1.09454207e+09 1.09454216e+09 1.09454225e+09
 1.09454233e+09 1.09454242e+09 1.09454251e+09 1.09454259e+09
