name =JUICE_ROI_GAN_3_0_07
flyby = ['2034 SEP 07 06:03:51', '2034 SEP 08 06:03:51']
Observation TW = <SpiceCell dtype = 1, length = 0, size = 3600, card = 16, is_set = 1, adjust = 0, init = 1, base = 94055565712080, data = 94055565712128>
Res(t) = [1.02750904 1.02710765 1.02670832 1.02631105 1.02591585 1.0255227
 1.02513161 1.02474258 1.02435562 1.02397071 1.02358787 1.02320709
 1.02282837 1.02245172 1.02207713 1.0217046  1.02133413 1.02096573
 1.02059939 1.02023512 1.01987291 1.01951276 1.01915468 1.01879866
 1.0184447  1.01809281 1.01774299 1.01739523 1.01704953 1.0167059
 1.01636434 1.01602484 1.0156874  1.01535203 1.01501873 1.01468749
 1.01435831 1.0140312  1.01370616 1.01338317 1.01306226 1.01274341
 1.01242662 1.0121119  1.01179925 1.01148866 1.01118013 1.01087367
 1.01056927 1.01026693 1.00996666 1.00966846 1.00937231 1.00907823
 1.00878622 1.00849626 1.00820837 1.00792255 1.00763878 1.00735708
 1.00707744 1.00679986 1.00652434 1.00625088 1.00597949 1.00571015
 1.00544288 1.00517766 1.00491451 1.00465341 1.00439437 1.00413739
 1.00388247 1.00362961 1.0033788  1.00313005 1.00288336 1.00263872
 1.00239614 1.00215561 1.00191714 1.00168073 1.00144636 1.00121405
 1.00098379 1.00075559 1.00052943 1.00030533 1.00008328 0.99986327
 0.99964532 0.99942942 0.99921556 0.99900375 0.99879399 0.99858627
 0.9983806  0.99817698 0.9979754  0.99777586 0.99757837 0.99738291
 0.9971895  0.99699813 0.9968088  0.99662151 0.99643626 0.99625305
 0.99607187 0.99589273 0.99571562 0.99554055 0.99536751 0.99519651
 0.99502753 0.99486059 0.99469568 0.9945328  0.99437195 0.99421312
 0.99405632 0.99390155 0.9937488  0.99359807 0.99344937 0.99330269
 0.99315803 0.99301539 0.99287477 0.99273617 0.99259958 0.99246501
 0.99233245 0.99220191 0.99207338 0.99194686 0.99182235 0.99169985
 0.99157936 0.99146087 0.99134439 0.99122992 0.99111745 0.99100698
 0.99089851 0.99079204 0.99068757 0.9905851  0.99048462 0.99038614
 0.99028965 0.99019515 0.99010265 0.99001213 0.9899236  0.98983706
 0.9897525  0.98966993 0.98958934 0.98951073 0.98943411 0.98935946
 0.98928679 0.98921609 0.98914737 0.98908062 0.98901584 0.98895303
 0.98889219 0.98883332 0.98877641 0.98872147 0.98866849 0.98861747
 0.98856841 0.9885213  0.98847616 0.98843296 0.98839172 0.98835243
 0.9883151  0.9882797  0.98824626 0.98821476 0.9881852  0.98815759
 0.98813191 0.98810817 0.98808637 0.9880665  0.98804857 0.98803256
 0.98801849 0.98800634 0.98799612 0.98798782 0.98798144 0.98797699
 0.98797445 0.98797383 0.98797512 0.98797833 0.98798344 0.98799047
 0.9879994  0.98801024 0.98802298 0.98803762 0.98805416 0.9880726
 0.98809293 0.98811516 0.98813928 0.98816529 0.98819318 0.98822296
 0.98825463 0.98828817 0.9883236  0.9883609  0.98840007 0.98844112
 0.98848404 0.98852883 0.98857548 0.988624   0.98867439 0.98872663
 0.98878073 0.98883668 0.98889449 0.98895415 0.98901566 0.98907901
 0.98914421 0.98921126 0.98928014 0.98935086 0.98942341 0.9894978
 0.98957402 0.98965207 0.98973195 0.98981365 0.98989717 0.98998251
 0.99006966 0.99015863 0.99024942 0.99034201 0.99043641 0.99053261
 0.99063062 0.99073043 0.99083203 0.99093543 0.99104062 0.99114761
 0.99125638 0.99136693 0.99147927 0.99159339 0.99170928 0.99182695
 0.9919464  0.99206761 0.99219059 0.99231533 0.99244184 0.99257011
 0.99270013 0.99283191 0.99296544 0.99310072 0.99323774 0.99337651
 0.99351702 0.99365927 0.99380325 0.99394897 0.99409641 0.99424559
 0.99439649 0.99454911 0.99470345 0.99485951 0.99501728 0.99517676
 0.99533795 0.99550084 0.99566544 0.99583174 0.99599973 0.99616942
 0.9963408  0.99651387 0.99668863 0.99686507 0.99704318 0.99722298
 0.99740445 0.99758759 0.99777239 0.99795887 0.998147   0.9983368
 0.99852825 0.99872136 0.99891611 0.99911252 0.99931057 0.99951026
 0.99971159 0.99991455 1.00011915 1.00032538 1.00053323 1.00074271
 1.00095381 1.00116653 1.00138086 1.0015968  1.00181435 1.00203351
 1.00225426 1.00247662 1.00270057 1.00292612 1.00315326 1.00338198
 1.00361228 1.00384417 1.00407763 1.00431267 1.00454928 1.00478746
 1.0050272  1.0052685  1.00551136 1.00575577 1.00600174 1.00624926
 1.00649832 1.00674892 1.00700106 1.00725474 1.00750995 1.00776669
 1.00802495 1.00828474 1.00854604 1.00880887 1.0090732  1.00933904
 1.00960639 1.00987525 1.0101456  1.01041745 1.01069079 1.01096562
 1.01124194 1.01151974 1.01179902 1.01207977 1.012362   1.0126457
 1.01293086 1.01321749 1.01350557 1.01379511 1.01408611 1.01437855
 1.01467243 1.01496776 1.01526453 1.01556274 1.01586237 1.01616344
 1.01646592 1.01676984 1.01707516 1.01738191 1.01769006 1.01799962
 1.01831059 1.01862296 1.01893672 1.01925188 1.01956842 1.01988636
 1.02020568 1.02052637 1.02084845 1.02117189 1.02149671 1.02182289
 1.02215043 1.02247934 1.02280959 1.0231412  1.02347416 1.02380846
 1.0241441  1.02448108 1.02481939 1.02515903 1.0255     1.02584229
 1.0261859  1.02653083 1.02687706 1.02722461 1.02757346 1.02792362
 1.02827507 1.02862781 1.02898185 1.02933717 1.02969378 1.03005166
 1.03041082 1.03077126 1.03113296 1.03149593 1.03186016 1.03222564
 1.03259239 1.03296038 1.03332962 1.0337001  1.03407182 1.03444478
 1.03481897 1.03519439 1.03557103 1.03594889 1.03632798 1.03670827
 1.03708978 1.03747249 1.03785641 1.03824152 1.03862783 1.03901533
 1.03940402 1.0397939  1.04018495 1.04057719 1.04097059 1.04136517
 1.04176091 1.04215781 1.04255587 1.04295509 1.04335546 1.04375697
 1.04415963 1.04456343 1.04496836 1.04537443 1.04578162 1.04618994
 1.04659939 1.04700995 1.04742162 1.0478344  1.04824829 1.04866329
 1.04907938 1.04949656 1.04991484 1.05033421 1.05075466 1.05117619
 1.0515988  1.05202247 1.05244722 1.05287304 1.05329991 1.05372785
 1.05415683 1.05458687 1.05501796 1.05545008 1.05588325 1.05631745
 1.05675269 1.05718895 1.05762623 1.05806454 1.05850386 1.0589442
 1.05938554 1.05982789 1.06027124 1.06071559 1.06116094 1.06160727
 1.0620546  1.0625029  1.06295218 1.06340244 1.06385367 1.06430587
 1.06475904 1.06521316 1.06566824 1.06612428 1.06658126 1.06703919
 1.06749806 1.06795787 1.06841862 1.06888029 1.06934289 1.06980642
 1.07027086 1.07073622 1.07120249 1.07166968 1.07213776 1.07260675
 1.07307663 1.07354741 1.07401908 1.07449163 1.07496507 1.07543938
 1.07591457 1.07639063 1.07686756 1.07734535 1.077824   1.07830351
 1.07878387 1.07926508 1.07974714 1.08023003 1.08071377 1.08119834
 1.08168374 1.08216997 1.08265702 1.08314489 1.08363357 1.08412307
 1.08461338 1.08510449 1.0855964  1.08608911 1.08658261 1.08707691
 1.08757199 1.08806785 1.08856449 1.08906191 1.0895601  1.09005906
 1.09055878 1.09105927 1.09156051 1.09206251 1.09256525 1.09306874
 1.09357298 1.09407795 1.09458366 1.0950901  1.09559727 1.09610517
 1.09661378 1.09712312 1.09763316 1.09814392 1.09865539 1.09916756
 1.09968042 1.10019399 1.10070824 1.10122319 1.10173882 1.10225513
 1.10277212 1.10328979 1.10380812 1.10432713 1.10484679 1.10536712
 1.10588811 1.10640975 1.10693203 1.10745497 1.10797855 1.10850276
 1.10902762 1.1095531  1.11007921 1.11060595 1.11113331 1.11166129
 1.11218989 1.11271909 1.1132489  1.11377932 1.11431034 1.11484195
 1.11537416 1.11590696 1.11644035 1.11697432 1.11750887 1.11804399
 1.11857969 1.11911596 1.1196528  1.1201902  1.12072815 1.12126667
 1.12180574 1.12234535 1.12288551 1.12342622 1.12396746 1.12450924
 1.12505155 1.12559439 1.12613776 1.12668165 1.12722606 1.12777098
 1.12831641 1.12886236 1.12940881 1.12995576 1.13050321 1.13105115
 1.13159959 1.13214852 1.13269793 1.13324782 1.1337982  1.13434905
 1.13490037 1.13545216 1.13600441 1.13655713 1.13711031 1.13766395
 1.13821803 1.13877257 1.13932755 1.13988298 1.14043884 1.14099515
 1.14155188 1.14210905 1.14266664 1.14322466 1.14378309 1.14434195
 1.14490122 1.1454609  1.14602098 1.14658148 1.14714237 1.14770366
 1.14826535 1.14882743 1.1493899  1.14995275 1.15051599 1.15107961
 1.1516436  1.15220796 1.1527727  1.1533378  1.15390327 1.1544691
 1.15503529 1.15560183 1.15616872 1.15673596 1.15730355 1.15787148
 1.15843975 1.15900836 1.1595773  1.16014657 1.16071617 1.16128609
 1.16185633 1.16242689 1.16299777 1.16356896 1.16414046 1.16471227
 1.16528438 1.16585679 1.1664295  1.1670025  1.1675758  1.16814938
 1.16872325 1.16929741 1.16987184 1.17044655 1.17102154 1.17159679
 1.17217232 1.17274811 1.17332416 1.17390048 1.17447705 1.17505387
 1.17563095 1.17620828 1.17678585 1.17736366 1.17794172 1.17852001
 1.17909854 1.1796773  1.18025629 1.1808355  1.18141494 1.18199459
 1.18257447 1.18315456 1.18373487 1.18431538 1.1848961  1.18547703
 1.18605815 1.18663948 1.187221   1.18780271 1.18838462 1.18896671
 1.18954899 1.19013145 1.1907141  1.19129692 1.19187991 1.19246308
 1.19304641 1.19362991 1.19421358 1.19479741 1.1953814  1.19596554
 1.19654984 1.19713429 1.19771889 1.19830363 1.19888852 1.19947355
 1.20005872 1.20064402 1.20122946 1.20181503 1.20240073 1.20298655
 1.2035725  1.20415856 1.20474475 1.20533105 1.20591747 1.20650399
 1.20709063 1.20767737 1.20826421 1.20885116 1.2094382  1.21002534
 1.21061258 1.21119991 1.21178732 1.21237483 1.21296241 1.21355008
 1.21413783 1.21472566 1.21531356 1.21590153 1.21648958 1.21707769
 1.21766587 1.21825411 1.21884241 1.21943077 1.22001919 1.22060766
 1.22119619 1.22178476 1.22237338 1.22296205 1.22355076 1.22413951
 1.22472829 1.22531712 1.22590598 1.22649487 1.22708378 1.22767273
 1.2282617  1.2288507  1.22943971 1.23002875 1.2306178  1.23120686
 1.23179594 1.23238503 1.23297412 1.23356322 1.23415233 1.23474143
 1.23533054 1.23591964 1.23650874 1.23709783 1.23768691 1.23827599
 1.23886505 1.23945409 1.24004312 1.24063212 1.24122111 1.24181008
 1.24239901 1.24298793 1.24357681 1.24416566 1.24475448 1.24534326
 1.24593201 1.24652072 1.24710938 1.24769801 1.24828659 1.24887512
 1.2494636  1.25005204 1.25064042 1.25122875 1.25181702 1.25240523
 1.25299338 1.25358147 1.2541695  1.25475746 1.25534536 1.25593318
 1.25652094 1.25710862 1.25769623 1.25828376 1.25887121 1.25945858
 1.26004588 1.26063308 1.2612202  1.26180724 1.26239419 1.26298104
 1.26356781 1.26415447 1.26474105 1.26532752 1.2659139  1.26650018
 1.26708635 1.26767242 1.26825839 1.26884424 1.26942999 1.27001562
 1.27060115 1.27118656 1.27177185 1.27235703 1.27294208 1.27352702
 1.27411184 1.27469653 1.27528109 1.27586553 1.27644984 1.27703402
 1.27761807 1.27820198 1.27878576 1.2793694  1.27995291 1.28053628
 1.2811195  1.28170258 1.28228552 1.28286832 1.28345096 1.28403346
 1.28461581 1.28519801 1.28578005 1.28636195 1.28694368 1.28752526
 1.28810668 1.28868794 1.28926904 1.28984998 1.29043075 1.29101135
 1.29159179 1.29217207 1.29275217 1.2933321  1.29391186 1.29449144
 1.29507086 1.29565009 1.29622915 1.29680802 1.29738672 1.29796524
 1.29854357 1.29912172 1.29969969 1.30027746 1.30085505 1.30143245
 1.30200966 1.30258668 1.30316351 1.30374014 1.30431658 1.30489281
 1.30546886 1.3060447  1.30662034 1.30719578 1.30777102 1.30834606
 1.30892089 1.30949551 1.31006993 1.31064414 1.31121814 1.31179193
 1.31236551 1.31293887 1.31351202 1.31408496 1.31465768 1.31523018
 1.31580247 1.31637453 1.31694638 1.317518   1.3180894  1.31866058
 1.31923153 1.31980226 1.32037276 1.32094303 1.32151308 1.32208289
 1.32265248 1.32322183 1.32379095 1.32435984 1.32492849 1.3254969
 1.32606508 1.32663303 1.32720073 1.3277682  1.32833542 1.3289024
 1.32946915 1.33003564 1.3306019  1.33116791 1.33173367 1.33229919
 1.33286446 1.33342948 1.33399426 1.33455878 1.33512305 1.33568707
 1.33625084 1.33681435 1.33737761 1.33794062 1.33850337 1.33906586
 1.3396281  1.34019008 1.34075179 1.34131325]
t = [1.09452075e+09 1.09452081e+09 1.09452087e+09 1.09452093e+09
 1.09452099e+09 1.09452105e+09 1.09452111e+09 1.09452117e+09
 1.09452123e+09 1.09452129e+09 1.09452135e+09 1.09452141e+09
 1.09452147e+09 1.09452153e+09 1.09452158e+09 1.09452164e+09
 1.09452170e+09 1.09452176e+09 1.09452182e+09 1.09452188e+09
 1.09452194e+09 1.09452200e+09 1.09452206e+09 1.09452212e+09
 1.09452218e+09 1.09452224e+09 1.09452230e+09 1.09452236e+09
 1.09452242e+09 1.09452248e+09 1.09452254e+09 1.09452260e+09
 1.09452266e+09 1.09452272e+09 1.09452278e+09 1.09452284e+09
 1.09452290e+09 1.09452296e+09 1.09452302e+09 1.09452307e+09
 1.09452313e+09 1.09452319e+09 1.09452325e+09 1.09452331e+09
 1.09452337e+09 1.09452343e+09 1.09452349e+09 1.09452355e+09
 1.09452361e+09 1.09452367e+09 1.09452373e+09 1.09452379e+09
 1.09452385e+09 1.09452391e+09 1.09452397e+09 1.09452403e+09
 1.09452409e+09 1.09452415e+09 1.09452421e+09 1.09452427e+09
 1.09452433e+09 1.09452439e+09 1.09452445e+09 1.09452451e+09
 1.09452457e+09 1.09452462e+09 1.09452468e+09 1.09452474e+09
 1.09452480e+09 1.09452486e+09 1.09452492e+09 1.09452498e+09
 1.09452504e+09 1.09452510e+09 1.09452516e+09 1.09452522e+09
 1.09452528e+09 1.09452534e+09 1.09452540e+09 1.09452546e+09
 1.09452552e+09 1.09452558e+09 1.09452564e+09 1.09452570e+09
 1.09452576e+09 1.09452582e+09 1.09452588e+09 1.09452594e+09
 1.09452600e+09 1.09452606e+09 1.09452612e+09 1.09452617e+09
 1.09452623e+09 1.09452629e+09 1.09452635e+09 1.09452641e+09
 1.09452647e+09 1.09452653e+09 1.09452659e+09 1.09452665e+09
 1.09452671e+09 1.09452677e+09 1.09452683e+09 1.09452689e+09
 1.09452695e+09 1.09452701e+09 1.09452707e+09 1.09452713e+09
 1.09452719e+09 1.09452725e+09 1.09452731e+09 1.09452737e+09
 1.09452743e+09 1.09452749e+09 1.09452755e+09 1.09452761e+09
 1.09452766e+09 1.09452772e+09 1.09452778e+09 1.09452784e+09
 1.09452790e+09 1.09452796e+09 1.09452802e+09 1.09452808e+09
 1.09452814e+09 1.09452820e+09 1.09452826e+09 1.09452832e+09
 1.09452838e+09 1.09452844e+09 1.09452850e+09 1.09452856e+09
 1.09452862e+09 1.09452868e+09 1.09452874e+09 1.09452880e+09
 1.09452886e+09 1.09452892e+09 1.09452898e+09 1.09452904e+09
 1.09452910e+09 1.09452916e+09 1.09452921e+09 1.09452927e+09
 1.09452933e+09 1.09452939e+09 1.09452945e+09 1.09452951e+09
 1.09452957e+09 1.09452963e+09 1.09452969e+09 1.09452975e+09
 1.09452981e+09 1.09452987e+09 1.09452993e+09 1.09452999e+09
 1.09453005e+09 1.09453011e+09 1.09453017e+09 1.09453023e+09
 1.09453029e+09 1.09453035e+09 1.09453041e+09 1.09453047e+09
 1.09453053e+09 1.09453059e+09 1.09453065e+09 1.09453070e+09
 1.09453076e+09 1.09453082e+09 1.09453088e+09 1.09453094e+09
 1.09453100e+09 1.09453106e+09 1.09453112e+09 1.09453118e+09
 1.09453124e+09 1.09453130e+09 1.09453136e+09 1.09453142e+09
 1.09453148e+09 1.09453154e+09 1.09453160e+09 1.09453166e+09
 1.09453172e+09 1.09453178e+09 1.09453184e+09 1.09453190e+09
 1.09453196e+09 1.09453202e+09 1.09453208e+09 1.09453214e+09
 1.09453220e+09 1.09453225e+09 1.09453231e+09 1.09453237e+09
 1.09453243e+09 1.09453249e+09 1.09453255e+09 1.09453261e+09
 1.09453267e+09 1.09453273e+09 1.09453279e+09 1.09453285e+09
 1.09453291e+09 1.09453297e+09 1.09453303e+09 1.09453309e+09
 1.09453315e+09 1.09453321e+09 1.09453327e+09 1.09453333e+09
 1.09453339e+09 1.09453345e+09 1.09453351e+09 1.09453357e+09
 1.09453363e+09 1.09453369e+09 1.09453375e+09 1.09453380e+09
 1.09453386e+09 1.09453392e+09 1.09453398e+09 1.09453404e+09
 1.09453410e+09 1.09453416e+09 1.09453422e+09 1.09453428e+09
 1.09453434e+09 1.09453440e+09 1.09453446e+09 1.09453452e+09
 1.09453458e+09 1.09453464e+09 1.09453470e+09 1.09453476e+09
 1.09453482e+09 1.09453488e+09 1.09453494e+09 1.09453500e+09
 1.09453506e+09 1.09453512e+09 1.09453518e+09 1.09453524e+09
 1.09453529e+09 1.09453535e+09 1.09453541e+09 1.09453547e+09
 1.09453553e+09 1.09453559e+09 1.09453565e+09 1.09453571e+09
 1.09453577e+09 1.09453583e+09 1.09453589e+09 1.09453595e+09
 1.09453601e+09 1.09453607e+09 1.09453613e+09 1.09453619e+09
 1.09453625e+09 1.09453631e+09 1.09453637e+09 1.09453643e+09
 1.09453649e+09 1.09453655e+09 1.09453661e+09 1.09453667e+09
 1.09453673e+09 1.09453679e+09 1.09453684e+09 1.09453690e+09
 1.09453696e+09 1.09453702e+09 1.09453708e+09 1.09453714e+09
 1.09453720e+09 1.09453726e+09 1.09453732e+09 1.09453738e+09
 1.09453744e+09 1.09453750e+09 1.09453756e+09 1.09453762e+09
 1.09453768e+09 1.09453774e+09 1.09453780e+09 1.09453786e+09
 1.09453792e+09 1.09453798e+09 1.09453804e+09 1.09453810e+09
 1.09453816e+09 1.09453822e+09 1.09453828e+09 1.09453834e+09
 1.09453839e+09 1.09453845e+09 1.09453851e+09 1.09453857e+09
 1.09453863e+09 1.09453869e+09 1.09453875e+09 1.09453881e+09
 1.09453887e+09 1.09453893e+09 1.09453899e+09 1.09453905e+09
 1.09453911e+09 1.09453917e+09 1.09453923e+09 1.09453929e+09
 1.09453935e+09 1.09453941e+09 1.09453947e+09 1.09453953e+09
 1.09453959e+09 1.09453965e+09 1.09453971e+09 1.09453977e+09
 1.09453983e+09 1.09453988e+09 1.09453994e+09 1.09454000e+09
 1.09454006e+09 1.09454012e+09 1.09454018e+09 1.09454024e+09
 1.09454030e+09 1.09454036e+09 1.09454042e+09 1.09454048e+09
 1.09454054e+09 1.09454060e+09 1.09454066e+09 1.09454072e+09
 1.09454078e+09 1.09454084e+09 1.09454090e+09 1.09454096e+09
 1.09454102e+09 1.09454108e+09 1.09454114e+09 1.09454120e+09
 1.09454126e+09 1.09454132e+09 1.09454138e+09 1.09454143e+09
 1.09454149e+09 1.09454155e+09 1.09454161e+09 1.09454167e+09
 1.09454173e+09 1.09454179e+09 1.09454185e+09 1.09454191e+09
 1.09454197e+09 1.09454203e+09 1.09454209e+09 1.09454215e+09
 1.09454221e+09 1.09454227e+09 1.09454233e+09 1.09454239e+09
 1.09454245e+09 1.09454251e+09 1.09454257e+09 1.09454263e+09
 1.09454269e+09 1.09454275e+09 1.09454281e+09 1.09454287e+09
 1.09454292e+09 1.09454298e+09 1.09454304e+09 1.09454310e+09
 1.09454316e+09 1.09454322e+09 1.09454328e+09 1.09454334e+09
 1.09454340e+09 1.09454346e+09 1.09454352e+09 1.09454358e+09
 1.09454364e+09 1.09454370e+09 1.09454376e+09 1.09454382e+09
 1.09454388e+09 1.09454394e+09 1.09454400e+09 1.09454406e+09
 1.09454412e+09 1.09454418e+09 1.09454424e+09 1.09454430e+09
 1.09454436e+09 1.09454442e+09 1.09454447e+09 1.09454453e+09
 1.09454459e+09 1.09454465e+09 1.09454471e+09 1.09454477e+09
 1.09454483e+09 1.09454489e+09 1.09454495e+09 1.09454501e+09
 1.09454507e+09 1.09454513e+09 1.09454519e+09 1.09454525e+09
 1.09454531e+09 1.09454537e+09 1.09454543e+09 1.09454549e+09
 1.09454555e+09 1.09454561e+09 1.09454567e+09 1.09454573e+09
 1.09454579e+09 1.09454585e+09 1.09454591e+09 1.09454597e+09
 1.09454602e+09 1.09454608e+09 1.09454614e+09 1.09454620e+09
 1.09454626e+09 1.09454632e+09 1.09454638e+09 1.09454644e+09
 1.09454650e+09 1.09454656e+09 1.09454662e+09 1.09454668e+09
 1.09454674e+09 1.09454680e+09 1.09454686e+09 1.09454692e+09
 1.09454698e+09 1.09454704e+09 1.09454710e+09 1.09454716e+09
 1.09454722e+09 1.09454728e+09 1.09454734e+09 1.09454740e+09
 1.09454746e+09 1.09454751e+09 1.09454757e+09 1.09454763e+09
 1.09454769e+09 1.09454775e+09 1.09454781e+09 1.09454787e+09
 1.09454793e+09 1.09454799e+09 1.09454805e+09 1.09454811e+09
 1.09454817e+09 1.09454823e+09 1.09454829e+09 1.09454835e+09
 1.09454841e+09 1.09454847e+09 1.09454853e+09 1.09454859e+09
 1.09454865e+09 1.09454871e+09 1.09454877e+09 1.09454883e+09
 1.09454889e+09 1.09454895e+09 1.09454901e+09 1.09454906e+09
 1.09454912e+09 1.09454918e+09 1.09454924e+09 1.09454930e+09
 1.09454936e+09 1.09454942e+09 1.09454948e+09 1.09454954e+09
 1.09454960e+09 1.09454966e+09 1.09454972e+09 1.09454978e+09
 1.09454984e+09 1.09454990e+09 1.09454996e+09 1.09455002e+09
 1.09455008e+09 1.09455014e+09 1.09455020e+09 1.09455026e+09
 1.09455032e+09 1.09455038e+09 1.09455044e+09 1.09455050e+09
 1.09455055e+09 1.09455061e+09 1.09455067e+09 1.09455073e+09
 1.09455079e+09 1.09455085e+09 1.09455091e+09 1.09455097e+09
 1.09455103e+09 1.09455109e+09 1.09455115e+09 1.09455121e+09
 1.09455127e+09 1.09455133e+09 1.09455139e+09 1.09455145e+09
 1.09455151e+09 1.09455157e+09 1.09455163e+09 1.09455169e+09
 1.09455175e+09 1.09455181e+09 1.09455187e+09 1.09455193e+09
 1.09455199e+09 1.09455205e+09 1.09455210e+09 1.09455216e+09
 1.09455222e+09 1.09455228e+09 1.09455234e+09 1.09455240e+09
 1.09455246e+09 1.09455252e+09 1.09455258e+09 1.09455264e+09
 1.09455270e+09 1.09455276e+09 1.09455282e+09 1.09455288e+09
 1.09455294e+09 1.09455300e+09 1.09455306e+09 1.09455312e+09
 1.09455318e+09 1.09455324e+09 1.09455330e+09 1.09455336e+09
 1.09455342e+09 1.09455348e+09 1.09455354e+09 1.09455360e+09
 1.09455365e+09 1.09455371e+09 1.09455377e+09 1.09455383e+09
 1.09455389e+09 1.09455395e+09 1.09455401e+09 1.09455407e+09
