name =JUICE_ROI_GAN_4_6_01
flyby = ['2034 SEP 28 18:48:51', '2034 SEP 29 18:48:51']
Observation TW = <SpiceCell dtype = 1, length = 0, size = 3000, card = 10, is_set = 1, adjust = 0, init = 1, base = 93831231250784, data = 93831231250832>
Res(t) = [1.28692878 1.2866817  1.2864361  1.28619197 1.28594931 1.28570812
 1.2854684  1.28523014 1.28499335 1.28475803 1.28452416 1.28429176
 1.28406082 1.28383134 1.28360331 1.28337674 1.28315162 1.28292796
 1.28270575 1.28248498 1.28226567 1.28204781 1.28183139 1.28161642
 1.28140289 1.2811908  1.28098015 1.28077094 1.28056317 1.28035684
 1.28015194 1.27994848 1.27974645 1.27954585 1.27934668 1.27914893
 1.27895262 1.27875773 1.27856426 1.27837221 1.27818159 1.27799239
 1.2778046  1.27761823 1.27743328 1.27724974 1.27706761 1.27688689
 1.27670759 1.27652969 1.2763532  1.27617811 1.27600443 1.27583215
 1.27566126 1.27549178 1.2753237  1.27515701 1.27499172 1.27482782
 1.27466531 1.2745042  1.27434447 1.27418613 1.27402918 1.27387361
 1.27371942 1.27356661 1.27341519 1.27326514 1.27311647 1.27296917
 1.27282325 1.2726787  1.27253552 1.27239371 1.27225327 1.2721142
 1.27197649 1.27184014 1.27170515 1.27157153 1.27143926 1.27130835
 1.27117879 1.27105059 1.27092374 1.27079824 1.2706741  1.27055129
 1.27042984 1.27030973 1.27019096 1.27007353 1.26995745 1.2698427
 1.26972929 1.26961721 1.26950647 1.26939705 1.26928897 1.26918222
 1.2690768  1.2689727  1.26886992 1.26876847 1.26866833 1.26856952
 1.26847202 1.26837584 1.26828098 1.26818742 1.26809518 1.26800425
 1.26791462 1.26782631 1.26773929 1.26765358 1.26756917 1.26748606
 1.26740425 1.26732373 1.26724451 1.26716659 1.26708995 1.2670146
 1.26694055 1.26686778 1.26679629 1.26672609 1.26665717 1.26658953
 1.26652316 1.26645808 1.26639427 1.26633173 1.26627047 1.26621047
 1.26615174 1.26609428 1.26603809 1.26598316 1.26592949 1.26587708
 1.26582593 1.26577603 1.2657274  1.26568001 1.26563388 1.26558899
 1.26554536 1.26550297 1.26546182 1.26542192 1.26538326 1.26534584
 1.26530966 1.26527472 1.26524101 1.26520853 1.26517729 1.26514727
 1.26511849 1.26509092 1.26506459 1.26503947 1.26501558 1.26499291
 1.26497145 1.26495122 1.26493219 1.26491438 1.26489778 1.26488239
 1.2648682  1.26485522 1.26484345 1.26483288 1.2648235  1.26481533
 1.26480836 1.26480258 1.26479799 1.26479459 1.26479239 1.26479137
 1.26479154 1.2647929  1.26479544 1.26479916 1.26480406 1.26481014
 1.26481739 1.26482582 1.26483542 1.2648462  1.26485814 1.26487125
 1.26488552 1.26490096 1.26491757 1.26493533 1.26495425 1.26497433
 1.26499556 1.26501795 1.26504149 1.26506618 1.26509202 1.265119
 1.26514713 1.2651764  1.26520681 1.26523837 1.26527106 1.26530488
 1.26533984 1.26537594 1.26541316 1.26545151 1.26549099 1.2655316
 1.26557332 1.26561617 1.26566014 1.26570523 1.26575144 1.26579876
 1.26584719 1.26589673 1.26594739 1.26599915 1.26605201 1.26610598
 1.26616106 1.26621723 1.2662745  1.26633287 1.26639234 1.26645289
 1.26651454 1.26657728 1.26664111 1.26670602 1.26677202 1.2668391
 1.26690726 1.2669765  1.26704682 1.26711821 1.26719068 1.26726422
 1.26733883 1.26741451 1.26749125 1.26756906 1.26764793 1.26772786
 1.26780886 1.26789091 1.26797401 1.26805817 1.26814339 1.26822965
 1.26831696 1.26840532 1.26849472 1.26858517 1.26867666 1.26876919
 1.26886275 1.26895736 1.26905299 1.26914966 1.26924736 1.26934609
 1.26944585 1.26954663 1.26964843 1.26975126 1.26985511 1.26995997
 1.27006586 1.27017275 1.27028066 1.27038958 1.27049951 1.27061045
 1.27072239 1.27083534 1.27094928 1.27106423 1.27118018 1.27129712
 1.27141506 1.27153399 1.27165392 1.27177483 1.27189673 1.27201962
 1.27214349 1.27226834 1.27239417 1.27252098 1.27264877 1.27277754
 1.27290727 1.27303798 1.27316966 1.27330231 1.27343592 1.2735705
 1.27370604 1.27384254 1.27398    1.27411842 1.27425779 1.27439811
 1.27453939 1.27468162 1.2748248  1.27496892 1.27511399 1.27526
 1.27540695 1.27555484 1.27570367 1.27585343 1.27600413 1.27615576
 1.27630832 1.27646181 1.27661622 1.27677157 1.27692783 1.27708502
 1.27724312 1.27740214 1.27756208 1.27772294 1.2778847  1.27804738
 1.27821097 1.27837546 1.27854086 1.27870716 1.27887437 1.27904247
 1.27921147 1.27938137 1.27955217 1.27972385 1.27989643 1.2800699
 1.28024426 1.2804195  1.28059562 1.28077263 1.28095052 1.28112929
 1.28130893 1.28148945 1.28167084 1.28185311 1.28203624 1.28222025
 1.28240512 1.28259085 1.28277745 1.28296491 1.28315322 1.2833424
 1.28353243 1.28372332 1.28391505 1.28410764 1.28430108 1.28449536
 1.28469049 1.28488647 1.28508328 1.28528094 1.28547943 1.28567876
 1.28587892 1.28607992 1.28628175 1.28648441 1.2866879  1.28689221
 1.28709735 1.28730331 1.28751009 1.28771769 1.2879261  1.28813534
 1.28834538 1.28855624 1.28876791 1.28898039 1.28919367 1.28940776
 1.28962265 1.28983835 1.29005484 1.29027214 1.29049023 1.29070911
 1.29092879 1.29114926 1.29137052 1.29159257 1.2918154  1.29203902
 1.29226342 1.2924886  1.29271456 1.2929413  1.29316881 1.2933971
 1.29362616 1.29385599 1.29408659 1.29431796 1.29455009 1.29478299
 1.29501665 1.29525107 1.29548625 1.29572218 1.29595888 1.29619632
 1.29643452 1.29667347 1.29691316 1.2971536  1.29739479 1.29763672
 1.2978794  1.29812281 1.29836696 1.29861185 1.29885748 1.29910383
 1.29935092 1.29959874 1.29984729 1.30009656 1.30034656 1.30059729
 1.30084873 1.30110089 1.30135378 1.30160738 1.30186169 1.30211672
 1.30237246 1.3026289  1.30288606 1.30314393 1.30340249 1.30366177
 1.30392174 1.30418241 1.30444378 1.30470585 1.30496862 1.30523207
 1.30549622 1.30576106 1.30602659 1.3062928  1.3065597  1.30682728
 1.30709555 1.30736449 1.30763412 1.30790442 1.30817539 1.30844704
 1.30871936 1.30899235 1.30926601 1.30954034 1.30981533 1.31009099
 1.31036731 1.31064429 1.31092193 1.31120022 1.31147918 1.31175878
 1.31203904 1.31231995 1.31260151 1.31288372 1.31316657 1.31345007
 1.31373421 1.31401899 1.31430441 1.31459047 1.31487717 1.3151645
 1.31545246 1.31574106 1.31603028 1.31632014 1.31661062 1.31690173
 1.31719346 1.31748581 1.31777878 1.31807238 1.31836659 1.31866141
 1.31895685 1.31925291 1.31954957 1.31984684 1.32014473 1.32044321
 1.32074231 1.321042   1.3213423  1.3216432  1.3219447  1.32224679
 1.32254948 1.32285277 1.32315664 1.32346111 1.32376617 1.32407181
 1.32437804 1.32468486 1.32499226 1.32530024 1.3256088  1.32591794
 1.32622766 1.32653795 1.32684881 1.32716025 1.32747226 1.32778484
 1.32809799 1.3284117  1.32872598 1.32904082 1.32935622 1.32967219
 1.32998871 1.33030579 1.33062343 1.33094162 1.33126036 1.33157965
 1.3318995  1.33221989 1.33254083 1.33286231 1.33318434 1.33350691
 1.33383002 1.33415367 1.33447786 1.33480258 1.33512784 1.33545364
 1.33577996 1.33610682 1.3364342  1.33676212 1.33709055 1.33741952
 1.337749   1.33807901 1.33840954 1.33874058 1.33907215 1.33940423
 1.33973682 1.34006993 1.34040355 1.34073768 1.34107231 1.34140746
 1.34174311 1.34207926 1.34241592 1.34275308 1.34309073 1.34342889
 1.34376754 1.34410669 1.34444634 1.34478647 1.3451271  1.34546822
 1.34580983 1.34615192 1.3464945  1.34683756 1.34718111 1.34752514
 1.34786965 1.34821463 1.3485601  1.34890604 1.34925245 1.34959934
 1.3499467  1.35029453 1.35064282 1.35099159 1.35134082 1.35169052
 1.35204068 1.3523913  1.35274238 1.35309392 1.35344592 1.35379838
 1.35415129 1.35450466 1.35485847 1.35521274 1.35556746 1.35592262
 1.35627824 1.3566343  1.3569908  1.35734774 1.35770513 1.35806296
 1.35842122 1.35877993 1.35913907 1.35949864 1.35985865 1.36021909
 1.36057996 1.36094126 1.36130299 1.36166514 1.36202772 1.36239073
 1.36275415 1.363118   1.36348227 1.36384696 1.36421206 1.36457758
 1.36494352 1.36530987 1.36567663 1.36604381 1.36641139 1.36677938
 1.36714778 1.36751658 1.36788579 1.3682554  1.36862542 1.36899583
 1.36936665 1.36973786 1.37010947 1.37048147 1.37085387 1.37122666
 1.37159985 1.37197342 1.37234738 1.37272173 1.37309647 1.37347159
 1.3738471  1.37422299 1.37459926 1.37497591 1.37535294 1.37573035
 1.37610814 1.3764863  1.37686483 1.37724374 1.37762302 1.37800267
 1.37838269 1.37876308 1.37914383 1.37952495 1.37990643 1.38028828
 1.38067049 1.38105306 1.38143598 1.38181927 1.38220291 1.38258691
 1.38297127 1.38335597 1.38374103 1.38412644 1.3845122  1.38489831
 1.38528477 1.38567157 1.38605872 1.38644621 1.38683404 1.38722221
 1.38761073 1.38799958 1.38838877 1.3887783  1.38916816 1.38955836
 1.38994889 1.39033976 1.39073095 1.39112247 1.39151433 1.39190651
 1.39229901 1.39269184 1.393085   1.39347847 1.39387227 1.39426639
 1.39466083 1.39505559 1.39545066 1.39584605 1.39624175 1.39663777
 1.3970341  1.39743074 1.39782769 1.39822495 1.39862252 1.3990204
 1.39941858 1.39981707 1.40021585 1.40061495 1.40101434 1.40141403
 1.40181402 1.40221431 1.4026149  1.40301578 1.40341696 1.40381843
 1.40422019 1.40462225 1.40502459 1.40542723 1.40583015 1.40623336
 1.40663685 1.40704063 1.4074447  1.40784904 1.40825367 1.40865858
 1.40906377 1.40946924 1.40987498 1.410281   1.4106873  1.41109387
 1.41150071 1.41190782 1.41231521 1.41272287 1.41313079 1.41353898
 1.41394744 1.41435617 1.41476516 1.41517441 1.41558393 1.41599371
 1.41640375 1.41681405 1.4172246  1.41763542 1.41804649 1.41845782
 1.4188694  1.41928123 1.41969332 1.42010566 1.42051825 1.42093109
 1.42134418 1.42175751 1.42217109 1.42258492 1.42299899 1.42341331
 1.42382786 1.42424266 1.4246577  1.42507298 1.4254885  1.42590425
 1.42632024 1.42673647 1.42715293 1.42756963 1.42798656 1.42840372
 1.42882111 1.42923873 1.42965658 1.43007466 1.43049296 1.43091149
 1.43133025 1.43174923 1.43216843 1.43258786 1.4330075  1.43342737
 1.43384746 1.43426776 1.43468828 1.43510902 1.43552997 1.43595114
 1.43637253 1.43679412 1.43721593 1.43763795 1.43806018 1.43848261
 1.43890526 1.43932811 1.43975117 1.44017444 1.44059791 1.44102158
 1.44144546 1.44186954 1.44229382 1.4427183  1.44314298 1.44356785
 1.44399293 1.4444182  1.44484367 1.44526933 1.44569519 1.44612123
 1.44654748 1.44697391 1.44740053 1.44782734 1.44825434 1.44868153
 1.44910891 1.44953647 1.44996422 1.45039215 1.45082027 1.45124856
 1.45167704 1.45210571 1.45253455 1.45296357 1.45339277 1.45382214
 1.4542517  1.45468142 1.45511133 1.45554141 1.45597166 1.45640208
 1.45683268 1.45726345 1.45769438 1.45812549 1.45855677 1.45898821
 1.45941982 1.4598516  1.46028354 1.46071564 1.46114791 1.46158035
 1.46201294 1.4624457  1.46287861 1.46331169 1.46374492 1.46417832
 1.46461187 1.46504557 1.46547943 1.46591345 1.46634762 1.46678195
 1.46721643 1.46765105 1.46808583 1.46852077 1.46895585 1.46939107
 1.46982645 1.47026198 1.47069765 1.47113346 1.47156942 1.47200553
 1.47244178 1.47287817 1.47331471 1.47375138 1.4741882  1.47462515
 1.47506225 1.47549948 1.47593685 1.47637435 1.476812   1.47724978
 1.47768769 1.47812574 1.47856392 1.47900223 1.47944067 1.47987925
 1.48031795 1.48075679 1.48119575 1.48163485 1.48207407 1.48251341
 1.48295288 1.48339248 1.48383221 1.48427205 1.48471202 1.48515211
 1.48559233 1.48603266 1.48647312 1.4869137  1.48735439 1.4877952
 1.48823614 1.48867718 1.48911835 1.48955963 1.49000103 1.49044254
 1.49088416 1.4913259  1.49176775 1.49220971 1.49265178 1.49309397
 1.49353626 1.49397866 1.49442117 1.49486379 1.49530652 1.49574935
 1.49619229 1.49663533 1.49707848 1.49752173 1.49796509 1.49840855
 1.49885211 1.49929577 1.49973954 1.5001834  1.50062736 1.50107142
 1.50151559 1.50195984 1.5024042  1.50284865 1.5032932  1.50373784
 1.50418258 1.50462742 1.50507234 1.50551736 1.50596247 1.50640768
 1.50685297 1.50729836 1.50774383 1.5081894 ]
t = [1.09639215e+09 1.09639220e+09 1.09639225e+09 1.09639230e+09
 1.09639234e+09 1.09639239e+09 1.09639244e+09 1.09639249e+09
 1.09639254e+09 1.09639259e+09 1.09639264e+09 1.09639268e+09
 1.09639273e+09 1.09639278e+09 1.09639283e+09 1.09639288e+09
 1.09639293e+09 1.09639297e+09 1.09639302e+09 1.09639307e+09
 1.09639312e+09 1.09639317e+09 1.09639322e+09 1.09639327e+09
 1.09639331e+09 1.09639336e+09 1.09639341e+09 1.09639346e+09
 1.09639351e+09 1.09639356e+09 1.09639361e+09 1.09639365e+09
 1.09639370e+09 1.09639375e+09 1.09639380e+09 1.09639385e+09
 1.09639390e+09 1.09639394e+09 1.09639399e+09 1.09639404e+09
 1.09639409e+09 1.09639414e+09 1.09639419e+09 1.09639424e+09
 1.09639428e+09 1.09639433e+09 1.09639438e+09 1.09639443e+09
 1.09639448e+09 1.09639453e+09 1.09639458e+09 1.09639462e+09
 1.09639467e+09 1.09639472e+09 1.09639477e+09 1.09639482e+09
 1.09639487e+09 1.09639491e+09 1.09639496e+09 1.09639501e+09
 1.09639506e+09 1.09639511e+09 1.09639516e+09 1.09639521e+09
 1.09639525e+09 1.09639530e+09 1.09639535e+09 1.09639540e+09
 1.09639545e+09 1.09639550e+09 1.09639555e+09 1.09639559e+09
 1.09639564e+09 1.09639569e+09 1.09639574e+09 1.09639579e+09
 1.09639584e+09 1.09639588e+09 1.09639593e+09 1.09639598e+09
 1.09639603e+09 1.09639608e+09 1.09639613e+09 1.09639618e+09
 1.09639622e+09 1.09639627e+09 1.09639632e+09 1.09639637e+09
 1.09639642e+09 1.09639647e+09 1.09639652e+09 1.09639656e+09
 1.09639661e+09 1.09639666e+09 1.09639671e+09 1.09639676e+09
 1.09639681e+09 1.09639685e+09 1.09639690e+09 1.09639695e+09
 1.09639700e+09 1.09639705e+09 1.09639710e+09 1.09639715e+09
 1.09639719e+09 1.09639724e+09 1.09639729e+09 1.09639734e+09
 1.09639739e+09 1.09639744e+09 1.09639749e+09 1.09639753e+09
 1.09639758e+09 1.09639763e+09 1.09639768e+09 1.09639773e+09
 1.09639778e+09 1.09639782e+09 1.09639787e+09 1.09639792e+09
 1.09639797e+09 1.09639802e+09 1.09639807e+09 1.09639812e+09
 1.09639816e+09 1.09639821e+09 1.09639826e+09 1.09639831e+09
 1.09639836e+09 1.09639841e+09 1.09639845e+09 1.09639850e+09
 1.09639855e+09 1.09639860e+09 1.09639865e+09 1.09639870e+09
 1.09639875e+09 1.09639879e+09 1.09639884e+09 1.09639889e+09
 1.09639894e+09 1.09639899e+09 1.09639904e+09 1.09639909e+09
 1.09639913e+09 1.09639918e+09 1.09639923e+09 1.09639928e+09
 1.09639933e+09 1.09639938e+09 1.09639942e+09 1.09639947e+09
 1.09639952e+09 1.09639957e+09 1.09639962e+09 1.09639967e+09
 1.09639972e+09 1.09639976e+09 1.09639981e+09 1.09639986e+09
 1.09639991e+09 1.09639996e+09 1.09640001e+09 1.09640006e+09
 1.09640010e+09 1.09640015e+09 1.09640020e+09 1.09640025e+09
 1.09640030e+09 1.09640035e+09 1.09640039e+09 1.09640044e+09
 1.09640049e+09 1.09640054e+09 1.09640059e+09 1.09640064e+09
 1.09640069e+09 1.09640073e+09 1.09640078e+09 1.09640083e+09
 1.09640088e+09 1.09640093e+09 1.09640098e+09 1.09640103e+09
 1.09640107e+09 1.09640112e+09 1.09640117e+09 1.09640122e+09
 1.09640127e+09 1.09640132e+09 1.09640136e+09 1.09640141e+09
 1.09640146e+09 1.09640151e+09 1.09640156e+09 1.09640161e+09
 1.09640166e+09 1.09640170e+09 1.09640175e+09 1.09640180e+09
 1.09640185e+09 1.09640190e+09 1.09640195e+09 1.09640200e+09
 1.09640204e+09 1.09640209e+09 1.09640214e+09 1.09640219e+09
 1.09640224e+09 1.09640229e+09 1.09640233e+09 1.09640238e+09
 1.09640243e+09 1.09640248e+09 1.09640253e+09 1.09640258e+09
 1.09640263e+09 1.09640267e+09 1.09640272e+09 1.09640277e+09
 1.09640282e+09 1.09640287e+09 1.09640292e+09 1.09640297e+09
 1.09640301e+09 1.09640306e+09 1.09640311e+09 1.09640316e+09
 1.09640321e+09 1.09640326e+09 1.09640330e+09 1.09640335e+09
 1.09640340e+09 1.09640345e+09 1.09640350e+09 1.09640355e+09
 1.09640360e+09 1.09640364e+09 1.09640369e+09 1.09640374e+09
 1.09640379e+09 1.09640384e+09 1.09640389e+09 1.09640394e+09
 1.09640398e+09 1.09640403e+09 1.09640408e+09 1.09640413e+09
 1.09640418e+09 1.09640423e+09 1.09640427e+09 1.09640432e+09
 1.09640437e+09 1.09640442e+09 1.09640447e+09 1.09640452e+09
 1.09640457e+09 1.09640461e+09 1.09640466e+09 1.09640471e+09
 1.09640476e+09 1.09640481e+09 1.09640486e+09 1.09640491e+09
 1.09640495e+09 1.09640500e+09 1.09640505e+09 1.09640510e+09
 1.09640515e+09 1.09640520e+09 1.09640524e+09 1.09640529e+09
 1.09640534e+09 1.09640539e+09 1.09640544e+09 1.09640549e+09
 1.09640554e+09 1.09640558e+09 1.09640563e+09 1.09640568e+09
 1.09640573e+09 1.09640578e+09 1.09640583e+09 1.09640588e+09
 1.09640592e+09 1.09640597e+09 1.09640602e+09 1.09640607e+09
 1.09640612e+09 1.09640617e+09 1.09640621e+09 1.09640626e+09
 1.09640631e+09 1.09640636e+09 1.09640641e+09 1.09640646e+09
 1.09640651e+09 1.09640655e+09 1.09640660e+09 1.09640665e+09
 1.09640670e+09 1.09640675e+09 1.09640680e+09 1.09640685e+09
 1.09640689e+09 1.09640694e+09 1.09640699e+09 1.09640704e+09
 1.09640709e+09 1.09640714e+09 1.09640718e+09 1.09640723e+09
 1.09640728e+09 1.09640733e+09 1.09640738e+09 1.09640743e+09
 1.09640748e+09 1.09640752e+09 1.09640757e+09 1.09640762e+09
 1.09640767e+09 1.09640772e+09 1.09640777e+09 1.09640782e+09
 1.09640786e+09 1.09640791e+09 1.09640796e+09 1.09640801e+09
 1.09640806e+09 1.09640811e+09 1.09640815e+09 1.09640820e+09
 1.09640825e+09 1.09640830e+09 1.09640835e+09 1.09640840e+09
 1.09640845e+09 1.09640849e+09 1.09640854e+09 1.09640859e+09
 1.09640864e+09 1.09640869e+09 1.09640874e+09 1.09640879e+09
 1.09640883e+09 1.09640888e+09 1.09640893e+09 1.09640898e+09
 1.09640903e+09 1.09640908e+09 1.09640912e+09 1.09640917e+09
 1.09640922e+09 1.09640927e+09 1.09640932e+09 1.09640937e+09
 1.09640942e+09 1.09640946e+09 1.09640951e+09 1.09640956e+09
 1.09640961e+09 1.09640966e+09 1.09640971e+09 1.09640976e+09
 1.09640980e+09 1.09640985e+09 1.09640990e+09 1.09640995e+09
 1.09641000e+09 1.09641005e+09 1.09641009e+09 1.09641014e+09
 1.09641019e+09 1.09641024e+09 1.09641029e+09 1.09641034e+09
 1.09641039e+09 1.09641043e+09 1.09641048e+09 1.09641053e+09
 1.09641058e+09 1.09641063e+09 1.09641068e+09 1.09641073e+09
 1.09641077e+09 1.09641082e+09 1.09641087e+09 1.09641092e+09
 1.09641097e+09 1.09641102e+09 1.09641106e+09 1.09641111e+09
 1.09641116e+09 1.09641121e+09 1.09641126e+09 1.09641131e+09
 1.09641136e+09 1.09641140e+09 1.09641145e+09 1.09641150e+09
 1.09641155e+09 1.09641160e+09 1.09641165e+09 1.09641170e+09
 1.09641174e+09 1.09641179e+09 1.09641184e+09 1.09641189e+09
 1.09641194e+09 1.09641199e+09 1.09641203e+09 1.09641208e+09
 1.09641213e+09 1.09641218e+09 1.09641223e+09 1.09641228e+09
 1.09641233e+09 1.09641237e+09 1.09641242e+09 1.09641247e+09
 1.09641252e+09 1.09641257e+09 1.09641262e+09 1.09641267e+09
 1.09641271e+09 1.09641276e+09 1.09641281e+09 1.09641286e+09
 1.09641291e+09 1.09641296e+09 1.09641300e+09 1.09641305e+09
 1.09641310e+09 1.09641315e+09 1.09641320e+09 1.09641325e+09
 1.09641330e+09 1.09641334e+09 1.09641339e+09 1.09641344e+09
 1.09641349e+09 1.09641354e+09 1.09641359e+09 1.09641364e+09
 1.09641368e+09 1.09641373e+09 1.09641378e+09 1.09641383e+09
 1.09641388e+09 1.09641393e+09 1.09641397e+09 1.09641402e+09
 1.09641407e+09 1.09641412e+09 1.09641417e+09 1.09641422e+09
 1.09641427e+09 1.09641431e+09 1.09641436e+09 1.09641441e+09
 1.09641446e+09 1.09641451e+09 1.09641456e+09 1.09641460e+09
 1.09641465e+09 1.09641470e+09 1.09641475e+09 1.09641480e+09
 1.09641485e+09 1.09641490e+09 1.09641494e+09 1.09641499e+09
 1.09641504e+09 1.09641509e+09 1.09641514e+09 1.09641519e+09
 1.09641524e+09 1.09641528e+09 1.09641533e+09 1.09641538e+09
 1.09641543e+09 1.09641548e+09 1.09641553e+09 1.09641557e+09
 1.09641562e+09 1.09641567e+09 1.09641572e+09 1.09641577e+09
 1.09641582e+09 1.09641587e+09 1.09641591e+09 1.09641596e+09
 1.09641601e+09 1.09641606e+09 1.09641611e+09 1.09641616e+09
 1.09641621e+09 1.09641625e+09 1.09641630e+09 1.09641635e+09
 1.09641640e+09 1.09641645e+09 1.09641650e+09 1.09641654e+09
 1.09641659e+09 1.09641664e+09 1.09641669e+09 1.09641674e+09
 1.09641679e+09 1.09641684e+09 1.09641688e+09 1.09641693e+09
 1.09641698e+09 1.09641703e+09 1.09641708e+09 1.09641713e+09
 1.09641718e+09 1.09641722e+09 1.09641727e+09 1.09641732e+09
 1.09641737e+09 1.09641742e+09 1.09641747e+09 1.09641751e+09
 1.09641756e+09 1.09641761e+09 1.09641766e+09 1.09641771e+09
 1.09641776e+09 1.09641781e+09 1.09641785e+09 1.09641790e+09
 1.09641795e+09 1.09641800e+09 1.09641805e+09 1.09641810e+09
 1.09641815e+09 1.09641819e+09 1.09641824e+09 1.09641829e+09
 1.09641834e+09 1.09641839e+09 1.09641844e+09 1.09641848e+09
 1.09641853e+09 1.09641858e+09 1.09641863e+09 1.09641868e+09
 1.09641873e+09 1.09641878e+09 1.09641882e+09 1.09641887e+09
 1.09641892e+09 1.09641897e+09 1.09641902e+09 1.09641907e+09
 1.09641912e+09 1.09641916e+09 1.09641921e+09 1.09641926e+09
