name =JUICE_ROI_GAN_1_0_07
flyby = ['2034 SEP 28 18:48:51', '2034 SEP 29 18:48:51']
Observation TW = <SpiceCell dtype = 1, length = 0, size = 3400, card = 14, is_set = 1, adjust = 0, init = 1, base = 94574003386832, data = 94574003386880>
Res(t) = [1.46730589 1.46655655 1.46581012 1.46506659 1.46432597 1.46358827
 1.46285347 1.46212158 1.46139261 1.46066655 1.45994341 1.45922319
 1.45850588 1.4577915  1.45708004 1.4563715  1.45566589 1.4549632
 1.45426344 1.45356661 1.45287271 1.45218174 1.4514937  1.45080859
 1.45012642 1.44944719 1.44877089 1.44809753 1.44742711 1.44675964
 1.4460951  1.44543351 1.44477486 1.44411916 1.4434664  1.4428166
 1.44216974 1.44152583 1.44088487 1.44024687 1.43961182 1.43897972
 1.43835058 1.4377244  1.43710117 1.4364809  1.43586359 1.43524925
 1.43463786 1.43402944 1.43342398 1.43282148 1.43222195 1.43162539
 1.43103179 1.43044116 1.4298535  1.42926881 1.42868709 1.42810835
 1.42753257 1.42695977 1.42638994 1.42582309 1.42525922 1.42469832
 1.42414039 1.42358545 1.42303348 1.4224845  1.42193849 1.42139546
 1.42085542 1.42031836 1.41978428 1.41925318 1.41872507 1.41819994
 1.4176778  1.41715865 1.41664248 1.41612929 1.4156191  1.41511189
 1.41460767 1.41410644 1.4136082  1.41311295 1.41262069 1.41213142
 1.41164515 1.41116186 1.41068157 1.41020426 1.40972996 1.40925864
 1.40879032 1.40832499 1.40786265 1.40740331 1.40694697 1.40649362
 1.40604326 1.4055959  1.40515154 1.40471017 1.40427179 1.40383641
 1.40340403 1.40297465 1.40254826 1.40212487 1.40170447 1.40128707
 1.40087267 1.40046126 1.40005285 1.39964744 1.39924502 1.3988456
 1.39844918 1.39805575 1.39766532 1.39727788 1.39689344 1.396512
 1.39613355 1.3957581  1.39538564 1.39501618 1.39464971 1.39428624
 1.39392576 1.39356828 1.39321379 1.39286229 1.39251379 1.39216828
 1.39182576 1.39148623 1.3911497  1.39081615 1.3904856  1.39015803
 1.38983346 1.38951188 1.38919328 1.38887767 1.38856505 1.38825542
 1.38794877 1.38764511 1.38734443 1.38704674 1.38675203 1.3864603
 1.38617156 1.38588579 1.38560301 1.38532321 1.38504639 1.38477254
 1.38450168 1.38423379 1.38396887 1.38370694 1.38344797 1.38319198
 1.38293896 1.38268891 1.38244183 1.38219772 1.38195658 1.38171841
 1.3814832  1.38125096 1.38102168 1.38079536 1.38057201 1.38035161
 1.38013418 1.3799197  1.37970818 1.37949961 1.379294   1.37909134
 1.37889164 1.37869488 1.37850108 1.37831022 1.3781223  1.37793733
 1.37775531 1.37757623 1.37740008 1.37722688 1.37705661 1.37688928
 1.37672488 1.37656342 1.37640489 1.37624929 1.37609661 1.37594686
 1.37580004 1.37565614 1.37551515 1.37537709 1.37524195 1.37510972
 1.37498041 1.37485401 1.37473052 1.37460993 1.37449226 1.37437748
 1.37426562 1.37415665 1.37405058 1.37394741 1.37384713 1.37374974
 1.37365525 1.37356364 1.37347492 1.37338909 1.37330613 1.37322606
 1.37314887 1.37307455 1.3730031  1.37293453 1.37286882 1.37280598
 1.37274601 1.37268889 1.37263464 1.37258324 1.3725347  1.37248901
 1.37244617 1.37240618 1.37236903 1.37233473 1.37230326 1.37227464
 1.37224884 1.37222588 1.37220575 1.37218845 1.37217397 1.37216231
 1.37215347 1.37214745 1.37214424 1.37214384 1.37214625 1.37215146
 1.37215948 1.3721703  1.37218391 1.37220031 1.37221951 1.37224149
 1.37226626 1.37229381 1.37232414 1.37235725 1.37239313 1.37243177
 1.37247319 1.37251737 1.3725643  1.372614   1.37266645 1.37272165
 1.3727796  1.37284029 1.37290372 1.37296989 1.3730388  1.37311043
 1.3731848  1.37326189 1.3733417  1.37342423 1.37350947 1.37359742
 1.37368808 1.37378145 1.37387751 1.37397627 1.37407773 1.37418188
 1.37428871 1.37439822 1.37451041 1.37462528 1.37474282 1.37486303
 1.3749859  1.37511143 1.37523962 1.37537046 1.37550395 1.37564009
 1.37577887 1.37592028 1.37606433 1.37621101 1.37636032 1.37651225
 1.37666679 1.37682395 1.37698372 1.3771461  1.37731108 1.37747865
 1.37764882 1.37782158 1.37799693 1.37817485 1.37835536 1.37853844
 1.37872408 1.3789123  1.37910307 1.3792964  1.37949228 1.37969071
 1.37989168 1.3800952  1.38030124 1.38050982 1.38072092 1.38093455
 1.38115069 1.38136935 1.38159051 1.38181418 1.38204035 1.38226901
 1.38250017 1.38273381 1.38296993 1.38320852 1.38344959 1.38369313
 1.38393913 1.38418759 1.3844385  1.38469186 1.38494767 1.38520591
 1.38546659 1.3857297  1.38599524 1.38626319 1.38653356 1.38680634
 1.38708153 1.38735912 1.3876391  1.38792148 1.38820624 1.38849339
 1.38878291 1.3890748  1.38936906 1.38966568 1.38996465 1.39026598
 1.39056965 1.39087567 1.39118402 1.3914947  1.39180771 1.39212304
 1.39244069 1.39276065 1.39308291 1.39340747 1.39373433 1.39406348
 1.39439491 1.39472862 1.3950646  1.39540286 1.39574338 1.39608615
 1.39643118 1.39677846 1.39712798 1.39747973 1.39783372 1.39818993
 1.39854836 1.39890901 1.39927187 1.39963693 1.4000042  1.40037365
 1.40074529 1.40111912 1.40149512 1.40187329 1.40225363 1.40263613
 1.40302079 1.40340759 1.40379654 1.40418762 1.40458084 1.40497618
 1.40537364 1.40577322 1.40617491 1.4065787  1.40698459 1.40739257
 1.40780264 1.40821479 1.40862902 1.40904531 1.40946367 1.40988409
 1.41030656 1.41073107 1.41115763 1.41158622 1.41201684 1.41244948
 1.41288414 1.41332081 1.41375948 1.41420015 1.41464282 1.41508748
 1.41553411 1.41598273 1.41643331 1.41688586 1.41734036 1.41779682
 1.41825522 1.41871556 1.41917783 1.41964204 1.42010816 1.4205762
 1.42104615 1.42151801 1.42199176 1.4224674  1.42294493 1.42342434
 1.42390562 1.42438877 1.42487378 1.42536064 1.42584936 1.42633991
 1.4268323  1.42732653 1.42782257 1.42832044 1.42882012 1.4293216
 1.42982488 1.43032996 1.43083682 1.43134546 1.43185588 1.43236806
 1.43288201 1.43339772 1.43391517 1.43443437 1.4349553  1.43547797
 1.43600236 1.43652847 1.43705629 1.43758581 1.43811704 1.43864996
 1.43918456 1.43972085 1.44025881 1.44079844 1.44133973 1.44188267
 1.44242727 1.4429735  1.44352138 1.44407088 1.44462201 1.44517475
 1.44572911 1.44628507 1.44684262 1.44740177 1.44796251 1.44852482
 1.44908871 1.44965416 1.45022117 1.45078974 1.45135985 1.4519315
 1.45250469 1.45307941 1.45365565 1.4542334  1.45481266 1.45539342
 1.45597568 1.45655943 1.45714466 1.45773137 1.45831954 1.45890919
 1.45950029 1.46009283 1.46068683 1.46128226 1.46187912 1.46247741
 1.46307712 1.46367824 1.46428076 1.46488469 1.46549    1.46609671
 1.46670479 1.46731425 1.46792507 1.46853726 1.4691508  1.46976569
 1.47038191 1.47099948 1.47161837 1.47223858 1.47286011 1.47348295
 1.47410709 1.47473253 1.47535926 1.47598727 1.47661656 1.47724712
 1.47787894 1.47851202 1.47914635 1.47978193 1.48041874 1.48105679
 1.48169606 1.48233655 1.48297825 1.48362116 1.48426527 1.48491058
 1.48555707 1.48620474 1.48685359 1.4875036  1.48815477 1.4888071
 1.48946058 1.4901152  1.49077096 1.49142785 1.49208586 1.49274498
 1.49340522 1.49406656 1.494729   1.49539253 1.49605714 1.49672284
 1.4973896  1.49805743 1.49872632 1.49939627 1.50006726 1.50073929
 1.50141236 1.50208645 1.50276156 1.50343769 1.50411483 1.50479298
 1.50547212 1.50615224 1.50683336 1.50751545 1.50819851 1.50888253
 1.50956752 1.51025346 1.51094034 1.51162817 1.51231692 1.51300661
 1.51369721 1.51438874 1.51508117 1.5157745  1.51646873 1.51716385
 1.51785985 1.51855674 1.51925449 1.51995311 1.52065259 1.52135292
 1.5220541  1.52275612 1.52345897 1.52416266 1.52486716 1.52557249
 1.52627862 1.52698556 1.52769329 1.52840182 1.52911114 1.52982123
 1.5305321  1.53124373 1.53195613 1.53266928 1.53338319 1.53409783
 1.53481322 1.53552934 1.53624618 1.53696374 1.53768202 1.538401
 1.53912069 1.53984107 1.54056214 1.5412839  1.54200633 1.54272944
 1.54345321 1.54417764 1.54490273 1.54562847 1.54635485 1.54708186
 1.54780951 1.54853778 1.54926668 1.54999618 1.5507263  1.55145701
 1.55218832 1.55292023 1.55365271 1.55438578 1.55511942 1.55585363
 1.5565884  1.55732372 1.5580596  1.55879602 1.55953298 1.56027047
 1.56100849 1.56174703 1.56248609 1.56322566 1.56396573 1.5647063
 1.56544737 1.56618893 1.56693096 1.56767348 1.56841647 1.56915992
 1.56990383 1.5706482  1.57139302 1.57213828 1.57288398 1.57363011
 1.57437668 1.57512366 1.57587106 1.57661887 1.57736709 1.5781157
 1.57886471 1.57961412 1.5803639  1.58111407 1.5818646  1.58261551
 1.58336678 1.58411841 1.58487038 1.58562271 1.58637538 1.58712838
 1.58788172 1.58863538 1.58938936 1.59014366 1.59089826 1.59165318
 1.59240839 1.5931639  1.59391969 1.59467578 1.59543214 1.59618877
 1.59694567 1.59770284 1.59846027 1.59921795 1.59997588 1.60073405
 1.60149247 1.60225111 1.60300999 1.60376908 1.6045284  1.60528793
 1.60604767 1.60680762 1.60756776 1.6083281  1.60908862 1.60984933
 1.61061022 1.61137129 1.61213252 1.61289392 1.61365548 1.6144172
 1.61517906 1.61594107 1.61670323 1.61746551 1.61822793 1.61899048
 1.61975315 1.62051594 1.62127884 1.62204184 1.62280495 1.62356816
 1.62433147 1.62509486 1.62585834 1.6266219  1.62738553 1.62814924
 1.62891301 1.62967684 1.63044074 1.63120468 1.63196868 1.63273271
 1.63349679 1.63426091 1.63502505 1.63578922 1.63655341 1.63731762
 1.63808185 1.63884608 1.63961032 1.64037456 1.64113879 1.64190301
 1.64266723 1.64343142 1.6441956  1.64495975 1.64572387 1.64648795
 1.647252   1.648016   1.64877996 1.64954387 1.65030772 1.65107152
 1.65183525 1.65259892 1.65336251 1.65412603 1.65488947 1.65565282
 1.65641609 1.65717927 1.65794235 1.65870533 1.65946821 1.66023098
 1.66099364 1.66175619 1.66251861 1.66328091 1.66404309 1.66480513
 1.66556705 1.66632882 1.66709045 1.66785193 1.66861326 1.66937444
 1.67013547 1.67089633 1.67165702 1.67241755 1.67317791 1.67393809
 1.67469808 1.6754579  1.67621753 1.67697697 1.67773621 1.67849526
 1.6792541  1.68001274 1.68077117 1.68152939 1.68228739 1.68304517
 1.68380273 1.68456007 1.68531717 1.68607404 1.68683067 1.68758707
 1.68834322 1.68909912 1.68985477 1.69061017 1.69136531 1.69212019
 1.69287481 1.69362916 1.69438324 1.69513704 1.69589057 1.69664382
 1.69739679 1.69814947 1.69890185 1.69965395 1.70040575 1.70115725
 1.70190844 1.70265933 1.70340992 1.70416018 1.70491014 1.70565977
 1.70640909 1.70715808 1.70790674 1.70865507 1.70940307 1.71015074
 1.71089806 1.71164504 1.71239167 1.71313796 1.71388389 1.71462947
 1.7153747  1.71611956 1.71686406 1.7176082  1.71835196 1.71909536
 1.71983838 1.72058102 1.72132329 1.72206517 1.72280666 1.72354777
 1.72428849 1.72502881 1.72576874 1.72650827 1.72724739 1.72798612
 1.72872443 1.72946234 1.73019983 1.73093691 1.73167357 1.73240981
 1.73314563 1.73388103 1.73461599 1.73535053 1.73608463 1.7368183
 1.73755153 1.73828433 1.73901667 1.73974858 1.74048003 1.74121104
 1.7419416  1.7426717  1.74340134 1.74413052 1.74485925 1.74558751
 1.7463153  1.74704262 1.74776948 1.74849586 1.74922176 1.74994719
 1.75067214 1.7513966  1.75212058 1.75284408 1.75356709 1.7542896
 1.75501163 1.75573316 1.75645419 1.75717472 1.75789475 1.75861428
 1.7593333  1.76005182 1.76076982 1.76148732 1.7622043  1.76292076
 1.76363671 1.76435214 1.76506704 1.76578143 1.76649528 1.76720861
 1.76792142 1.76863369 1.76934543 1.77005663 1.7707673  1.77147742
 1.77218701 1.77289606 1.77360456 1.77431252 1.77501993 1.77572679
 1.77643309 1.77713885 1.77784405 1.7785487  1.77925279 1.77995632
 1.78065929 1.78136169 1.78206353 1.78276481 1.78346551 1.78416565
 1.78486522 1.78556421 1.78626264 1.78696048 1.78765775 1.78835444
 1.78905055 1.78974608 1.79044102 1.79113538 1.79182916 1.79252235
 1.79321495 1.79390696 1.79459837 1.7952892  1.79597943 1.79666906
 1.79735809 1.79804653 1.79873437 1.79942161 1.80010824 1.80079427
 1.8014797  1.80216452 1.80284873 1.80353233]
t = [1.09637115e+09 1.09637122e+09 1.09637129e+09 1.09637136e+09
 1.09637143e+09 1.09637150e+09 1.09637157e+09 1.09637164e+09
 1.09637171e+09 1.09637178e+09 1.09637185e+09 1.09637191e+09
 1.09637198e+09 1.09637205e+09 1.09637212e+09 1.09637219e+09
 1.09637226e+09 1.09637233e+09 1.09637240e+09 1.09637247e+09
 1.09637254e+09 1.09637261e+09 1.09637268e+09 1.09637275e+09
 1.09637282e+09 1.09637289e+09 1.09637296e+09 1.09637303e+09
 1.09637310e+09 1.09637317e+09 1.09637324e+09 1.09637331e+09
 1.09637337e+09 1.09637344e+09 1.09637351e+09 1.09637358e+09
 1.09637365e+09 1.09637372e+09 1.09637379e+09 1.09637386e+09
 1.09637393e+09 1.09637400e+09 1.09637407e+09 1.09637414e+09
 1.09637421e+09 1.09637428e+09 1.09637435e+09 1.09637442e+09
 1.09637449e+09 1.09637456e+09 1.09637463e+09 1.09637470e+09
 1.09637477e+09 1.09637483e+09 1.09637490e+09 1.09637497e+09
 1.09637504e+09 1.09637511e+09 1.09637518e+09 1.09637525e+09
 1.09637532e+09 1.09637539e+09 1.09637546e+09 1.09637553e+09
 1.09637560e+09 1.09637567e+09 1.09637574e+09 1.09637581e+09
 1.09637588e+09 1.09637595e+09 1.09637602e+09 1.09637609e+09
 1.09637616e+09 1.09637623e+09 1.09637629e+09 1.09637636e+09
 1.09637643e+09 1.09637650e+09 1.09637657e+09 1.09637664e+09
 1.09637671e+09 1.09637678e+09 1.09637685e+09 1.09637692e+09
 1.09637699e+09 1.09637706e+09 1.09637713e+09 1.09637720e+09
 1.09637727e+09 1.09637734e+09 1.09637741e+09 1.09637748e+09
 1.09637755e+09 1.09637762e+09 1.09637769e+09 1.09637775e+09
 1.09637782e+09 1.09637789e+09 1.09637796e+09 1.09637803e+09
 1.09637810e+09 1.09637817e+09 1.09637824e+09 1.09637831e+09
 1.09637838e+09 1.09637845e+09 1.09637852e+09 1.09637859e+09
 1.09637866e+09 1.09637873e+09 1.09637880e+09 1.09637887e+09
 1.09637894e+09 1.09637901e+09 1.09637908e+09 1.09637914e+09
 1.09637921e+09 1.09637928e+09 1.09637935e+09 1.09637942e+09
 1.09637949e+09 1.09637956e+09 1.09637963e+09 1.09637970e+09
 1.09637977e+09 1.09637984e+09 1.09637991e+09 1.09637998e+09
 1.09638005e+09 1.09638012e+09 1.09638019e+09 1.09638026e+09
 1.09638033e+09 1.09638040e+09 1.09638047e+09 1.09638054e+09
 1.09638060e+09 1.09638067e+09 1.09638074e+09 1.09638081e+09
 1.09638088e+09 1.09638095e+09 1.09638102e+09 1.09638109e+09
 1.09638116e+09 1.09638123e+09 1.09638130e+09 1.09638137e+09
 1.09638144e+09 1.09638151e+09 1.09638158e+09 1.09638165e+09
 1.09638172e+09 1.09638179e+09 1.09638186e+09 1.09638193e+09
 1.09638200e+09 1.09638206e+09 1.09638213e+09 1.09638220e+09
 1.09638227e+09 1.09638234e+09 1.09638241e+09 1.09638248e+09
 1.09638255e+09 1.09638262e+09 1.09638269e+09 1.09638276e+09
 1.09638283e+09 1.09638290e+09 1.09638297e+09 1.09638304e+09
 1.09638311e+09 1.09638318e+09 1.09638325e+09 1.09638332e+09
 1.09638339e+09 1.09638346e+09 1.09638352e+09 1.09638359e+09
 1.09638366e+09 1.09638373e+09 1.09638380e+09 1.09638387e+09
 1.09638394e+09 1.09638401e+09 1.09638408e+09 1.09638415e+09
 1.09638422e+09 1.09638429e+09 1.09638436e+09 1.09638443e+09
 1.09638450e+09 1.09638457e+09 1.09638464e+09 1.09638471e+09
 1.09638478e+09 1.09638485e+09 1.09638492e+09 1.09638498e+09
 1.09638505e+09 1.09638512e+09 1.09638519e+09 1.09638526e+09
 1.09638533e+09 1.09638540e+09 1.09638547e+09 1.09638554e+09
 1.09638561e+09 1.09638568e+09 1.09638575e+09 1.09638582e+09
 1.09638589e+09 1.09638596e+09 1.09638603e+09 1.09638610e+09
 1.09638617e+09 1.09638624e+09 1.09638631e+09 1.09638637e+09
 1.09638644e+09 1.09638651e+09 1.09638658e+09 1.09638665e+09
 1.09638672e+09 1.09638679e+09 1.09638686e+09 1.09638693e+09
 1.09638700e+09 1.09638707e+09 1.09638714e+09 1.09638721e+09
 1.09638728e+09 1.09638735e+09 1.09638742e+09 1.09638749e+09
 1.09638756e+09 1.09638763e+09 1.09638770e+09 1.09638777e+09
 1.09638783e+09 1.09638790e+09 1.09638797e+09 1.09638804e+09
 1.09638811e+09 1.09638818e+09 1.09638825e+09 1.09638832e+09
 1.09638839e+09 1.09638846e+09 1.09638853e+09 1.09638860e+09
 1.09638867e+09 1.09638874e+09 1.09638881e+09 1.09638888e+09
 1.09638895e+09 1.09638902e+09 1.09638909e+09 1.09638916e+09
 1.09638923e+09 1.09638929e+09 1.09638936e+09 1.09638943e+09
 1.09638950e+09 1.09638957e+09 1.09638964e+09 1.09638971e+09
 1.09638978e+09 1.09638985e+09 1.09638992e+09 1.09638999e+09
 1.09639006e+09 1.09639013e+09 1.09639020e+09 1.09639027e+09
 1.09639034e+09 1.09639041e+09 1.09639048e+09 1.09639055e+09
 1.09639062e+09 1.09639069e+09 1.09639075e+09 1.09639082e+09
 1.09639089e+09 1.09639096e+09 1.09639103e+09 1.09639110e+09
 1.09639117e+09 1.09639124e+09 1.09639131e+09 1.09639138e+09
 1.09639145e+09 1.09639152e+09 1.09639159e+09 1.09639166e+09
 1.09639173e+09 1.09639180e+09 1.09639187e+09 1.09639194e+09
 1.09639201e+09 1.09639208e+09 1.09639215e+09 1.09639221e+09
 1.09639228e+09 1.09639235e+09 1.09639242e+09 1.09639249e+09
 1.09639256e+09 1.09639263e+09 1.09639270e+09 1.09639277e+09
 1.09639284e+09 1.09639291e+09 1.09639298e+09 1.09639305e+09
 1.09639312e+09 1.09639319e+09 1.09639326e+09 1.09639333e+09
 1.09639340e+09 1.09639347e+09 1.09639354e+09 1.09639360e+09
 1.09639367e+09 1.09639374e+09 1.09639381e+09 1.09639388e+09
 1.09639395e+09 1.09639402e+09 1.09639409e+09 1.09639416e+09
 1.09639423e+09 1.09639430e+09 1.09639437e+09 1.09639444e+09
 1.09639451e+09 1.09639458e+09 1.09639465e+09 1.09639472e+09
 1.09639479e+09 1.09639486e+09 1.09639493e+09 1.09639500e+09
 1.09639506e+09 1.09639513e+09 1.09639520e+09 1.09639527e+09
 1.09639534e+09 1.09639541e+09 1.09639548e+09 1.09639555e+09
 1.09639562e+09 1.09639569e+09 1.09639576e+09 1.09639583e+09
 1.09639590e+09 1.09639597e+09 1.09639604e+09 1.09639611e+09
 1.09639618e+09 1.09639625e+09 1.09639632e+09 1.09639639e+09
 1.09639646e+09 1.09639652e+09 1.09639659e+09 1.09639666e+09
 1.09639673e+09 1.09639680e+09 1.09639687e+09 1.09639694e+09
 1.09639701e+09 1.09639708e+09 1.09639715e+09 1.09639722e+09
 1.09639729e+09 1.09639736e+09 1.09639743e+09 1.09639750e+09
 1.09639757e+09 1.09639764e+09 1.09639771e+09 1.09639778e+09
 1.09639785e+09 1.09639792e+09 1.09639798e+09 1.09639805e+09
 1.09639812e+09 1.09639819e+09 1.09639826e+09 1.09639833e+09
 1.09639840e+09 1.09639847e+09 1.09639854e+09 1.09639861e+09
 1.09639868e+09 1.09639875e+09 1.09639882e+09 1.09639889e+09
 1.09639896e+09 1.09639903e+09 1.09639910e+09 1.09639917e+09
 1.09639924e+09 1.09639931e+09 1.09639938e+09 1.09639944e+09
 1.09639951e+09 1.09639958e+09 1.09639965e+09 1.09639972e+09
 1.09639979e+09 1.09639986e+09 1.09639993e+09 1.09640000e+09
 1.09640007e+09 1.09640014e+09 1.09640021e+09 1.09640028e+09
 1.09640035e+09 1.09640042e+09 1.09640049e+09 1.09640056e+09
 1.09640063e+09 1.09640070e+09 1.09640077e+09 1.09640084e+09
 1.09640090e+09 1.09640097e+09 1.09640104e+09 1.09640111e+09
 1.09640118e+09 1.09640125e+09 1.09640132e+09 1.09640139e+09
 1.09640146e+09 1.09640153e+09 1.09640160e+09 1.09640167e+09
 1.09640174e+09 1.09640181e+09 1.09640188e+09 1.09640195e+09
 1.09640202e+09 1.09640209e+09 1.09640216e+09 1.09640223e+09
 1.09640229e+09 1.09640236e+09 1.09640243e+09 1.09640250e+09
 1.09640257e+09 1.09640264e+09 1.09640271e+09 1.09640278e+09
 1.09640285e+09 1.09640292e+09 1.09640299e+09 1.09640306e+09
 1.09640313e+09 1.09640320e+09 1.09640327e+09 1.09640334e+09
 1.09640341e+09 1.09640348e+09 1.09640355e+09 1.09640362e+09
 1.09640369e+09 1.09640375e+09 1.09640382e+09 1.09640389e+09
 1.09640396e+09 1.09640403e+09 1.09640410e+09 1.09640417e+09
 1.09640424e+09 1.09640431e+09 1.09640438e+09 1.09640445e+09
 1.09640452e+09 1.09640459e+09 1.09640466e+09 1.09640473e+09
 1.09640480e+09 1.09640487e+09 1.09640494e+09 1.09640501e+09
 1.09640508e+09 1.09640515e+09 1.09640521e+09 1.09640528e+09
 1.09640535e+09 1.09640542e+09 1.09640549e+09 1.09640556e+09
 1.09640563e+09 1.09640570e+09 1.09640577e+09 1.09640584e+09
 1.09640591e+09 1.09640598e+09 1.09640605e+09 1.09640612e+09
 1.09640619e+09 1.09640626e+09 1.09640633e+09 1.09640640e+09
 1.09640647e+09 1.09640654e+09 1.09640661e+09 1.09640667e+09
 1.09640674e+09 1.09640681e+09 1.09640688e+09 1.09640695e+09
 1.09640702e+09 1.09640709e+09 1.09640716e+09 1.09640723e+09
 1.09640730e+09 1.09640737e+09 1.09640744e+09 1.09640751e+09
 1.09640758e+09 1.09640765e+09 1.09640772e+09 1.09640779e+09
 1.09640786e+09 1.09640793e+09 1.09640800e+09 1.09640807e+09
 1.09640813e+09 1.09640820e+09 1.09640827e+09 1.09640834e+09
 1.09640841e+09 1.09640848e+09 1.09640855e+09 1.09640862e+09
 1.09640869e+09 1.09640876e+09 1.09640883e+09 1.09640890e+09
 1.09640897e+09 1.09640904e+09 1.09640911e+09 1.09640918e+09
 1.09640925e+09 1.09640932e+09 1.09640939e+09 1.09640946e+09
 1.09640952e+09 1.09640959e+09 1.09640966e+09 1.09640973e+09
 1.09640980e+09 1.09640987e+09 1.09640994e+09 1.09641001e+09
