name =JUICE_ROI_GAN_3_0_09
flyby = ['2034 SEP 07 06:03:51', '2034 SEP 08 06:03:51']
Observation TW = <SpiceCell dtype = 1, length = 0, size = 2800, card = 8, is_set = 1, adjust = 0, init = 1, base = 94887340886640, data = 94887340886688>
Res(t) = [1.90702715 1.90518398 1.90334732 1.90151715 1.89969345 1.8978762
 1.8960654  1.89426103 1.89246307 1.89067152 1.88888635 1.88710754
 1.8853351  1.883569   1.88180922 1.88005575 1.87830859 1.8765677
 1.87483309 1.87310473 1.87138261 1.86966671 1.86795703 1.86625354
 1.86455624 1.86286511 1.86118013 1.85950129 1.85782857 1.85616197
 1.85450147 1.85284705 1.8511987  1.8495564  1.84792015 1.84628992
 1.84466571 1.84304749 1.84143527 1.83982901 1.83822871 1.83663435
 1.83504593 1.83346342 1.83188681 1.8303161  1.82875125 1.82719227
 1.82563914 1.82409184 1.82255036 1.82101469 1.81948481 1.81796071
 1.81644238 1.8149298  1.81342296 1.81192184 1.81042644 1.80893674
 1.80745272 1.80597437 1.80450169 1.80303464 1.80157323 1.80011745
 1.79866726 1.79722267 1.79578366 1.79435022 1.79292233 1.79149998
 1.79008315 1.78867184 1.78726604 1.78586572 1.78447087 1.78308149
 1.78169756 1.78031907 1.778946   1.77757834 1.77621608 1.7748592
 1.7735077  1.77216156 1.77082076 1.76948531 1.76815517 1.76683034
 1.76551081 1.76419657 1.76288759 1.76158388 1.76028541 1.75899218
 1.75770417 1.75642137 1.75514377 1.75387135 1.75260411 1.75134203
 1.75008509 1.74883329 1.74758662 1.74634506 1.74510859 1.74387722
 1.74265092 1.74142968 1.74021349 1.73900235 1.73779623 1.73659513
 1.73539903 1.73420792 1.73302179 1.73184063 1.73066443 1.72949317
 1.72832684 1.72716543 1.72600893 1.72485733 1.72371062 1.72256878
 1.7214318  1.72029967 1.71917238 1.71804992 1.71693227 1.71581943
 1.71471138 1.71360812 1.71250962 1.71141588 1.7103269  1.70924264
 1.70816311 1.7070883  1.70601819 1.70495276 1.70389202 1.70283595
 1.70178453 1.70073776 1.69969563 1.69865812 1.69762522 1.69659693
 1.69557322 1.6945541  1.69353955 1.69252955 1.6915241  1.69052319
 1.6895268  1.68853493 1.68754756 1.68656468 1.68558629 1.68461237
 1.68364291 1.6826779  1.68171732 1.68076118 1.67980946 1.67886214
 1.67791922 1.67698069 1.67604654 1.67511674 1.67419131 1.67327022
 1.67235346 1.67144103 1.67053291 1.6696291  1.66872957 1.66783433
 1.66694336 1.66605666 1.6651742  1.66429599 1.66342201 1.66255225
 1.6616867  1.66082536 1.6599682  1.65911522 1.65826642 1.65742178
 1.65658128 1.65574493 1.65491271 1.65408461 1.65326062 1.65244074
 1.65162494 1.65081323 1.65000559 1.64920201 1.64840248 1.647607
 1.64681554 1.64602812 1.6452447  1.64446529 1.64368987 1.64291844
 1.64215099 1.6413875  1.64062796 1.63987237 1.63912072 1.638373
 1.6376292  1.6368893  1.6361533  1.6354212  1.63469297 1.63396862
 1.63324813 1.63253149 1.6318187  1.63110974 1.6304046  1.62970328
 1.62900577 1.62831206 1.62762213 1.62693599 1.62625361 1.625575
 1.62490014 1.62422902 1.62356163 1.62289798 1.62223804 1.6215818
 1.62092927 1.62028042 1.61963526 1.61899377 1.61835594 1.61772177
 1.61709124 1.61646435 1.61584109 1.61522144 1.61460541 1.61399298
 1.61338415 1.6127789  1.61217722 1.61157912 1.61098457 1.61039357
 1.60980612 1.6092222  1.60864181 1.60806493 1.60749156 1.60692169
 1.60635531 1.60579242 1.605233   1.60467705 1.60412455 1.60357551
 1.60302991 1.60248774 1.601949   1.60141367 1.60088175 1.60035324
 1.59982811 1.59930637 1.59878801 1.59827302 1.59776138 1.5972531
 1.59674816 1.59624656 1.59574829 1.59525333 1.59476169 1.59427336
 1.59378832 1.59330657 1.5928281  1.5923529  1.59188097 1.59141229
 1.59094686 1.59048468 1.59002573 1.58957001 1.5891175  1.58866821
 1.58822212 1.58777922 1.58733952 1.58690299 1.58646963 1.58603944
 1.58561241 1.58518853 1.58476779 1.58435019 1.58393571 1.58352436
 1.58311611 1.58271097 1.58230893 1.58190998 1.58151412 1.58112133
 1.5807316  1.58034494 1.57996134 1.57958077 1.57920325 1.57882876
 1.5784573  1.57808885 1.57772341 1.57736098 1.57700154 1.5766451
 1.57629163 1.57594114 1.57559362 1.57524905 1.57490744 1.57456878
 1.57423306 1.57390027 1.5735704  1.57324346 1.57291943 1.5725983
 1.57228007 1.57196473 1.57165227 1.57134269 1.57103599 1.57073214
 1.57043116 1.57013302 1.56983773 1.56954527 1.56925565 1.56896884
 1.56868486 1.56840368 1.56812531 1.56784974 1.56757695 1.56730695
 1.56703972 1.56677527 1.56651358 1.56625464 1.56599846 1.56574502
 1.56549432 1.56524635 1.56500111 1.56475858 1.56451877 1.56428166
 1.56404725 1.56381553 1.5635865  1.56336015 1.56313648 1.56291547
 1.56269712 1.56248143 1.56226839 1.56205799 1.56185022 1.56164509
 1.56144258 1.56124269 1.56104541 1.56085073 1.56065866 1.56046917
 1.56028228 1.56009796 1.55991622 1.55973705 1.55956045 1.5593864
 1.5592149  1.55904594 1.55887953 1.55871565 1.55855429 1.55839546
 1.55823914 1.55808533 1.55793402 1.55778522 1.5576389  1.55749507
 1.55735372 1.55721485 1.55707844 1.5569445  1.55681301 1.55668397
 1.55655738 1.55643324 1.55631152 1.55619223 1.55607537 1.55596093
 1.55584889 1.55573926 1.55563204 1.5555272  1.55542476 1.5553247
 1.55522702 1.55513171 1.55503877 1.55494819 1.55485997 1.5547741
 1.55469057 1.55460938 1.55453053 1.55445401 1.55437981 1.55430793
 1.55423836 1.5541711  1.55410614 1.55404348 1.55398311 1.55392503
 1.55386923 1.5538157  1.55376445 1.55371546 1.55366873 1.55362425
 1.55358203 1.55354205 1.5535043  1.5534688  1.55343552 1.55340447
 1.55337563 1.55334901 1.5533246  1.55330239 1.55328238 1.55326456
 1.55324893 1.55323549 1.55322422 1.55321513 1.55320821 1.55320345
 1.55320085 1.5532004  1.5532021  1.55320594 1.55321193 1.55322005
 1.55323029 1.55324267 1.55325716 1.55327376 1.55329248 1.5533133
 1.55333622 1.55336124 1.55338835 1.55341754 1.55344882 1.55348217
 1.55351759 1.55355509 1.55359464 1.55363625 1.55367992 1.55372563
 1.55377339 1.55382319 1.55387502 1.55392888 1.55398477 1.55404268
 1.5541026  1.55416454 1.55422848 1.55429443 1.55436238 1.55443232
 1.55450425 1.55457816 1.55465406 1.55473193 1.55481177 1.55489358
 1.55497735 1.55506308 1.55515077 1.5552404  1.55533198 1.5554255
 1.55552096 1.55561835 1.55571767 1.55581891 1.55592207 1.55602715
 1.55613414 1.55624303 1.55635383 1.55646653 1.55658111 1.55669759
 1.55681596 1.55693621 1.55705833 1.55718233 1.55730819 1.55743592
 1.55756552 1.55769696 1.55783027 1.55796542 1.55810241 1.55824125
 1.55838192 1.55852442 1.55866875 1.55881491 1.55896289 1.55911268
 1.55926429 1.5594177  1.55957292 1.55972994 1.55988875 1.56004936
 1.56021176 1.56037594 1.56054191 1.56070965 1.56087916 1.56105044
 1.56122349 1.5613983  1.56157487 1.56175319 1.56193327 1.56211509
 1.56229865 1.56248395 1.56267099 1.56285976 1.56305025 1.56324247
 1.56343642 1.56363207 1.56382944 1.56402852 1.56422931 1.5644318
 1.56463599 1.56484187 1.56504944 1.5652587  1.56546964 1.56568227
 1.56589657 1.56611255 1.56633019 1.5665495  1.56677047 1.56699311
 1.5672174  1.56744334 1.56767092 1.56790016 1.56813103 1.56836355
 1.5685977  1.56883348 1.56907088 1.56930992 1.56955057 1.56979284
 1.57003673 1.57028222 1.57052933 1.57077803 1.57102834 1.57128025
 1.57153375 1.57178884 1.57204552 1.57230378 1.57256363 1.57282505
 1.57308805 1.57335262 1.57361875 1.57388645 1.57415571 1.57442653
 1.57469891 1.57497284 1.57524831 1.57552533 1.5758039  1.576084
 1.57636564 1.57664881 1.57693351 1.57721974 1.57750749 1.57779676
 1.57808755 1.57837986 1.57867367 1.578969   1.57926583 1.57956416
 1.57986399 1.58016531 1.58046813 1.58077244 1.58107824 1.58138552
 1.58169428 1.58200452 1.58231623 1.58262942 1.58294407 1.5832602
 1.58357778 1.58389683 1.58421733 1.58453929 1.5848627  1.58518756
 1.58551387 1.58584162 1.58617081 1.58650143 1.5868335  1.58716699
 1.58750191 1.58783826 1.58817604 1.58851523 1.58885584 1.58919787
 1.58954131 1.58988616 1.59023242 1.59058008 1.59092914 1.59127961
 1.59163146 1.59198472 1.59233936 1.59269539 1.59305281 1.59341161
 1.59377178 1.59413334 1.59449627 1.59486058 1.59522625 1.59559329
 1.5959617  1.59633147 1.5967026  1.59707508 1.59744892 1.59782411
 1.59820065 1.59857854 1.59895777 1.59933834 1.59972025 1.6001035
 1.60048808 1.600874   1.60126124 1.60164981 1.60203971 1.60243092
 1.60282346 1.60321731 1.60361248 1.60400896 1.60440675 1.60480584
 1.60520625 1.60560795 1.60601095 1.60641526 1.60682086 1.60722775
 1.60763593 1.6080454  1.60845616 1.6088682  1.60928152 1.60969612
 1.610112   1.61052916 1.61094758 1.61136728 1.61178824 1.61221047
 1.61263397 1.61305872 1.61348473 1.61391201 1.61434053 1.61477031
 1.61520134 1.61563361 1.61606714 1.6165019  1.61693791 1.61737516
 1.61781364 1.61825336 1.61869431 1.61913649 1.61957991 1.62002455
 1.62047041 1.62091749 1.6213658  1.62181533 1.62226607 1.62271802
 1.62317119 1.62362557 1.62408115 1.62453795 1.62499594 1.62545514
 1.62591554 1.62637713 1.62683993 1.62730391 1.62776909 1.62823546
 1.62870302 1.62917176 1.62964169 1.6301128  1.63058509 1.63105856
 1.63153321 1.63200903 1.63248602 1.63296419 1.63344352 1.63392403
 1.63440569 1.63488852 1.63537252 1.63585767 1.63634398 1.63683144
 1.63732007 1.63780984 1.63830076 1.63879284 1.63928606 1.63978042
 1.64027593 1.64077258 1.64127037 1.6417693  1.64226937 1.64277057
 1.64327291 1.64377637 1.64428097 1.64478669 1.64529354 1.64580152
 1.64631061 1.64682083 1.64733217 1.64784463 1.6483582  1.64887288
 1.64938868 1.6499056  1.65042362 1.65094275 1.65146298 1.65198432
 1.65250676 1.65303031 1.65355495 1.6540807  1.65460754 1.65513548
 1.6556645  1.65619463 1.65672584 1.65725814 1.65779153 1.65832601
 1.65886156 1.65939821 1.65993593 1.66047474 1.66101462 1.66155558
 1.66209762 1.66264073 1.66318491 1.66373016 1.66427649 1.66482388
 1.66537234 1.66592186 1.66647245 1.6670241  1.66757681 1.66813059
 1.66868542 1.6692413  1.66979825 1.67035624 1.6709153  1.6714754
 1.67203655 1.67259875 1.673162   1.67372629 1.67429163 1.67485802
 1.67542544 1.67599391 1.67656342 1.67713396 1.67770554 1.67827816
 1.67885181 1.6794265  1.68000221 1.68057896 1.68115674 1.68173555
 1.68231538 1.68289624 1.68347812 1.68406103 1.68464495 1.6852299
 1.68581587 1.68640286 1.68699087 1.68757989 1.68816992 1.68876097
 1.68935304 1.68994611 1.6905402  1.69113529 1.69173139 1.6923285
 1.69292662 1.69352574 1.69412586 1.69472699 1.69532912 1.69593225
 1.69653638 1.6971415  1.69774763 1.69835475 1.69896286 1.69957197
 1.70018207 1.70079317 1.70140525 1.70201833 1.70263239 1.70324744
 1.70386348 1.70448051 1.70509852 1.70571751 1.70633749 1.70695845
 1.70758039 1.70820331 1.70882721 1.70945209 1.71007794 1.71070477
 1.71133258 1.71196136 1.71259112 1.71322185 1.71385355 1.71448622
 1.71511986 1.71575447 1.71639004 1.71702659 1.7176641  1.71830258
 1.71894202 1.71958243 1.7202238  1.72086613 1.72150942 1.72215367
 1.72279889 1.72344506 1.72409219 1.72474028 1.72538932 1.72603933
 1.72669028 1.72734219 1.72799506 1.72864887 1.72930364 1.72995936
 1.73061603 1.73127365 1.73193222 1.73259174 1.7332522  1.73391362
 1.73457598 1.73523928 1.73590353 1.73656872 1.73723486 1.73790194
 1.73856996 1.73923892 1.73990883 1.74057967 1.74125145 1.74192418
 1.74259784 1.74327244 1.74394797 1.74462444 1.74530185 1.74598019
 1.74665947 1.74733968 1.74802083 1.7487029  1.74938591 1.75006985
 1.75075473 1.75144053 1.75212726 1.75281492 1.75350352 1.75419304
 1.75488348 1.75557486 1.75626716 1.75696039 1.75765454 1.75834962
 1.75904563 1.75974255 1.76044041 1.76113918 1.76183888 1.7625395
 1.76324104 1.76394351 1.7646469  1.7653512  1.76605643 1.76676257
 1.76746964 1.76817763 1.76888653 1.76959635]
t = [1.09452975e+09 1.09452980e+09 1.09452985e+09 1.09452990e+09
 1.09452995e+09 1.09453000e+09 1.09453005e+09 1.09453010e+09
 1.09453015e+09 1.09453021e+09 1.09453026e+09 1.09453031e+09
 1.09453036e+09 1.09453041e+09 1.09453046e+09 1.09453051e+09
 1.09453056e+09 1.09453061e+09 1.09453066e+09 1.09453071e+09
 1.09453076e+09 1.09453081e+09 1.09453086e+09 1.09453091e+09
 1.09453096e+09 1.09453102e+09 1.09453107e+09 1.09453112e+09
 1.09453117e+09 1.09453122e+09 1.09453127e+09 1.09453132e+09
 1.09453137e+09 1.09453142e+09 1.09453147e+09 1.09453152e+09
 1.09453157e+09 1.09453162e+09 1.09453167e+09 1.09453172e+09
 1.09453177e+09 1.09453182e+09 1.09453188e+09 1.09453193e+09
 1.09453198e+09 1.09453203e+09 1.09453208e+09 1.09453213e+09
 1.09453218e+09 1.09453223e+09 1.09453228e+09 1.09453233e+09
 1.09453238e+09 1.09453243e+09 1.09453248e+09 1.09453253e+09
 1.09453258e+09 1.09453263e+09 1.09453269e+09 1.09453274e+09
 1.09453279e+09 1.09453284e+09 1.09453289e+09 1.09453294e+09
 1.09453299e+09 1.09453304e+09 1.09453309e+09 1.09453314e+09
 1.09453319e+09 1.09453324e+09 1.09453329e+09 1.09453334e+09
 1.09453339e+09 1.09453344e+09 1.09453349e+09 1.09453355e+09
 1.09453360e+09 1.09453365e+09 1.09453370e+09 1.09453375e+09
 1.09453380e+09 1.09453385e+09 1.09453390e+09 1.09453395e+09
 1.09453400e+09 1.09453405e+09 1.09453410e+09 1.09453415e+09
 1.09453420e+09 1.09453425e+09 1.09453430e+09 1.09453435e+09
 1.09453441e+09 1.09453446e+09 1.09453451e+09 1.09453456e+09
 1.09453461e+09 1.09453466e+09 1.09453471e+09 1.09453476e+09
 1.09453481e+09 1.09453486e+09 1.09453491e+09 1.09453496e+09
 1.09453501e+09 1.09453506e+09 1.09453511e+09 1.09453516e+09
 1.09453522e+09 1.09453527e+09 1.09453532e+09 1.09453537e+09
 1.09453542e+09 1.09453547e+09 1.09453552e+09 1.09453557e+09
 1.09453562e+09 1.09453567e+09 1.09453572e+09 1.09453577e+09
 1.09453582e+09 1.09453587e+09 1.09453592e+09 1.09453597e+09
 1.09453602e+09 1.09453608e+09 1.09453613e+09 1.09453618e+09
 1.09453623e+09 1.09453628e+09 1.09453633e+09 1.09453638e+09
 1.09453643e+09 1.09453648e+09 1.09453653e+09 1.09453658e+09
 1.09453663e+09 1.09453668e+09 1.09453673e+09 1.09453678e+09
 1.09453683e+09 1.09453688e+09 1.09453694e+09 1.09453699e+09
 1.09453704e+09 1.09453709e+09 1.09453714e+09 1.09453719e+09
 1.09453724e+09 1.09453729e+09 1.09453734e+09 1.09453739e+09
 1.09453744e+09 1.09453749e+09 1.09453754e+09 1.09453759e+09
 1.09453764e+09 1.09453769e+09 1.09453775e+09 1.09453780e+09
 1.09453785e+09 1.09453790e+09 1.09453795e+09 1.09453800e+09
 1.09453805e+09 1.09453810e+09 1.09453815e+09 1.09453820e+09
 1.09453825e+09 1.09453830e+09 1.09453835e+09 1.09453840e+09
 1.09453845e+09 1.09453850e+09 1.09453855e+09 1.09453861e+09
 1.09453866e+09 1.09453871e+09 1.09453876e+09 1.09453881e+09
 1.09453886e+09 1.09453891e+09 1.09453896e+09 1.09453901e+09
 1.09453906e+09 1.09453911e+09 1.09453916e+09 1.09453921e+09
 1.09453926e+09 1.09453931e+09 1.09453936e+09 1.09453941e+09
 1.09453947e+09 1.09453952e+09 1.09453957e+09 1.09453962e+09
 1.09453967e+09 1.09453972e+09 1.09453977e+09 1.09453982e+09
 1.09453987e+09 1.09453992e+09 1.09453997e+09 1.09454002e+09
 1.09454007e+09 1.09454012e+09 1.09454017e+09 1.09454022e+09
 1.09454028e+09 1.09454033e+09 1.09454038e+09 1.09454043e+09
 1.09454048e+09 1.09454053e+09 1.09454058e+09 1.09454063e+09
 1.09454068e+09 1.09454073e+09 1.09454078e+09 1.09454083e+09
 1.09454088e+09 1.09454093e+09 1.09454098e+09 1.09454103e+09
 1.09454108e+09 1.09454114e+09 1.09454119e+09 1.09454124e+09
 1.09454129e+09 1.09454134e+09 1.09454139e+09 1.09454144e+09
 1.09454149e+09 1.09454154e+09 1.09454159e+09 1.09454164e+09
 1.09454169e+09 1.09454174e+09 1.09454179e+09 1.09454184e+09
 1.09454189e+09 1.09454194e+09 1.09454200e+09 1.09454205e+09
 1.09454210e+09 1.09454215e+09 1.09454220e+09 1.09454225e+09
 1.09454230e+09 1.09454235e+09 1.09454240e+09 1.09454245e+09
 1.09454250e+09 1.09454255e+09 1.09454260e+09 1.09454265e+09
 1.09454270e+09 1.09454275e+09 1.09454281e+09 1.09454286e+09
 1.09454291e+09 1.09454296e+09 1.09454301e+09 1.09454306e+09
 1.09454311e+09 1.09454316e+09 1.09454321e+09 1.09454326e+09
 1.09454331e+09 1.09454336e+09 1.09454341e+09 1.09454346e+09
 1.09454351e+09 1.09454356e+09 1.09454361e+09 1.09454367e+09
 1.09454372e+09 1.09454377e+09 1.09454382e+09 1.09454387e+09
 1.09454392e+09 1.09454397e+09 1.09454402e+09 1.09454407e+09
 1.09454412e+09 1.09454417e+09 1.09454422e+09 1.09454427e+09
 1.09454432e+09 1.09454437e+09 1.09454442e+09 1.09454447e+09
 1.09454453e+09 1.09454458e+09 1.09454463e+09 1.09454468e+09
 1.09454473e+09 1.09454478e+09 1.09454483e+09 1.09454488e+09
 1.09454493e+09 1.09454498e+09 1.09454503e+09 1.09454508e+09
 1.09454513e+09 1.09454518e+09 1.09454523e+09 1.09454528e+09
 1.09454534e+09 1.09454539e+09 1.09454544e+09 1.09454549e+09
 1.09454554e+09 1.09454559e+09 1.09454564e+09 1.09454569e+09
 1.09454574e+09 1.09454579e+09 1.09454584e+09 1.09454589e+09
 1.09454594e+09 1.09454599e+09 1.09454604e+09 1.09454609e+09
 1.09454614e+09 1.09454620e+09 1.09454625e+09 1.09454630e+09
 1.09454635e+09 1.09454640e+09 1.09454645e+09 1.09454650e+09
 1.09454655e+09 1.09454660e+09 1.09454665e+09 1.09454670e+09
 1.09454675e+09 1.09454680e+09 1.09454685e+09 1.09454690e+09
 1.09454695e+09 1.09454700e+09 1.09454706e+09 1.09454711e+09
 1.09454716e+09 1.09454721e+09 1.09454726e+09 1.09454731e+09
 1.09454736e+09 1.09454741e+09 1.09454746e+09 1.09454751e+09
 1.09454756e+09 1.09454761e+09 1.09454766e+09 1.09454771e+09
 1.09454776e+09 1.09454781e+09 1.09454787e+09 1.09454792e+09
 1.09454797e+09 1.09454802e+09 1.09454807e+09 1.09454812e+09
 1.09454817e+09 1.09454822e+09 1.09454827e+09 1.09454832e+09
 1.09454837e+09 1.09454842e+09 1.09454847e+09 1.09454852e+09
 1.09454857e+09 1.09454862e+09 1.09454867e+09 1.09454873e+09
 1.09454878e+09 1.09454883e+09 1.09454888e+09 1.09454893e+09
 1.09454898e+09 1.09454903e+09 1.09454908e+09 1.09454913e+09
 1.09454918e+09 1.09454923e+09 1.09454928e+09 1.09454933e+09
 1.09454938e+09 1.09454943e+09 1.09454948e+09 1.09454954e+09
 1.09454959e+09 1.09454964e+09 1.09454969e+09 1.09454974e+09
 1.09454979e+09 1.09454984e+09 1.09454989e+09 1.09454994e+09
 1.09454999e+09 1.09455004e+09 1.09455009e+09 1.09455014e+09
 1.09455019e+09 1.09455024e+09 1.09455029e+09 1.09455034e+09
 1.09455040e+09 1.09455045e+09 1.09455050e+09 1.09455055e+09
 1.09455060e+09 1.09455065e+09 1.09455070e+09 1.09455075e+09
 1.09455080e+09 1.09455085e+09 1.09455090e+09 1.09455095e+09
 1.09455100e+09 1.09455105e+09 1.09455110e+09 1.09455115e+09
 1.09455120e+09 1.09455126e+09 1.09455131e+09 1.09455136e+09
 1.09455141e+09 1.09455146e+09 1.09455151e+09 1.09455156e+09
 1.09455161e+09 1.09455166e+09 1.09455171e+09 1.09455176e+09
 1.09455181e+09 1.09455186e+09 1.09455191e+09 1.09455196e+09
 1.09455201e+09 1.09455207e+09 1.09455212e+09 1.09455217e+09
 1.09455222e+09 1.09455227e+09 1.09455232e+09 1.09455237e+09
 1.09455242e+09 1.09455247e+09 1.09455252e+09 1.09455257e+09
 1.09455262e+09 1.09455267e+09 1.09455272e+09 1.09455277e+09
 1.09455282e+09 1.09455287e+09 1.09455293e+09 1.09455298e+09
 1.09455303e+09 1.09455308e+09 1.09455313e+09 1.09455318e+09
 1.09455323e+09 1.09455328e+09 1.09455333e+09 1.09455338e+09
 1.09455343e+09 1.09455348e+09 1.09455353e+09 1.09455358e+09
 1.09455363e+09 1.09455368e+09 1.09455373e+09 1.09455379e+09
 1.09455384e+09 1.09455389e+09 1.09455394e+09 1.09455399e+09
 1.09455404e+09 1.09455409e+09 1.09455414e+09 1.09455419e+09
 1.09455424e+09 1.09455429e+09 1.09455434e+09 1.09455439e+09
 1.09455444e+09 1.09455449e+09 1.09455454e+09 1.09455460e+09
 1.09455465e+09 1.09455470e+09 1.09455475e+09 1.09455480e+09
 1.09455485e+09 1.09455490e+09 1.09455495e+09 1.09455500e+09
 1.09455505e+09 1.09455510e+09 1.09455515e+09 1.09455520e+09
 1.09455525e+09 1.09455530e+09 1.09455535e+09 1.09455540e+09
 1.09455546e+09 1.09455551e+09 1.09455556e+09 1.09455561e+09
 1.09455566e+09 1.09455571e+09 1.09455576e+09 1.09455581e+09
 1.09455586e+09 1.09455591e+09 1.09455596e+09 1.09455601e+09
 1.09455606e+09 1.09455611e+09 1.09455616e+09 1.09455621e+09
 1.09455626e+09 1.09455632e+09 1.09455637e+09 1.09455642e+09
 1.09455647e+09 1.09455652e+09 1.09455657e+09 1.09455662e+09
 1.09455667e+09 1.09455672e+09 1.09455677e+09 1.09455682e+09
 1.09455687e+09 1.09455692e+09 1.09455697e+09 1.09455702e+09
 1.09455707e+09 1.09455713e+09 1.09455718e+09 1.09455723e+09
 1.09455728e+09 1.09455733e+09 1.09455738e+09 1.09455743e+09
 1.09455748e+09 1.09455753e+09 1.09455758e+09 1.09455763e+09
 1.09455768e+09 1.09455773e+09 1.09455778e+09 1.09455783e+09
 1.09455788e+09 1.09455793e+09 1.09455799e+09 1.09455804e+09
 1.09455809e+09 1.09455814e+09 1.09455819e+09 1.09455824e+09
