name =JUICE_ROI_GAN_4_4_06
flyby = ['2034 JUL 11 19:50:31', '2034 JUL 12 19:50:31']
Observation TW = <SpiceCell dtype = 1, length = 0, size = 2800, card = 8, is_set = 1, adjust = 0, init = 1, base = 94397097908416, data = 94397097908464>
Res(t) = [3.21291169 3.20960789 3.20631354 3.20302863 3.19975316 3.19648711
 3.19323045 3.18998319 3.18674531 3.18351678 3.18029761 3.17708776
 3.17388723 3.17069601 3.16751407 3.16434141 3.16117802 3.15802385
 3.15487893 3.15174323 3.14861673 3.14549941 3.14239127 3.13929229
 3.13620245 3.13312174 3.13005015 3.12698766 3.12393425 3.1208899
 3.11785462 3.11482838 3.11181118 3.10880297 3.10580376 3.10281354
 3.09983228 3.09685998 3.09389661 3.09094217 3.08799664 3.08506
 3.08213223 3.07921333 3.07630328 3.07340207 3.07050966 3.06762607
 3.06475126 3.06188522 3.05902795 3.05617942 3.05333962 3.05050852
 3.04768613 3.04487242 3.04206739 3.039271   3.03648326 3.03370413
 3.03093362 3.0281717  3.02541835 3.02267357 3.01993734 3.01720964
 3.01449045 3.01177977 3.00907758 3.00638386 3.0036986  3.00102179
 2.99835339 2.99569342 2.99304183 2.99039863 2.98776379 2.98513731
 2.98251917 2.97990935 2.97730782 2.9747146  2.97212965 2.96955296
 2.96698452 2.96442431 2.96187231 2.95932852 2.95679291 2.95426547
 2.95174618 2.94923504 2.94673202 2.94423712 2.94175031 2.93927157
 2.93680091 2.93433829 2.9318837  2.92943714 2.92699859 2.92456802
 2.92214542 2.91973079 2.9173241  2.91492534 2.91253449 2.91015155
 2.90777649 2.9054093  2.90304997 2.90069847 2.8983548  2.89601894
 2.89369087 2.89137059 2.88905806 2.8867533  2.88445626 2.88216694
 2.87988533 2.87761142 2.87534517 2.87308659 2.87083566 2.86859235
 2.86635666 2.86412857 2.86190808 2.85969514 2.85748978 2.85529195
 2.85310165 2.85091886 2.84874357 2.84657576 2.84441543 2.84226254
 2.8401171  2.83797908 2.83584848 2.83372526 2.83160943 2.82950096
 2.82739985 2.82530607 2.82321962 2.82114047 2.81906862 2.81700405
 2.81494674 2.81289668 2.81085385 2.80881825 2.80678985 2.80476865
 2.80275462 2.80074776 2.79874805 2.79675546 2.79477001 2.79279165
 2.79082039 2.78885621 2.78689908 2.78494901 2.78300597 2.78106995
 2.77914094 2.77721892 2.77530387 2.77339579 2.77149466 2.76960046
 2.76771318 2.76583282 2.76395934 2.76209274 2.76023301 2.75838012
 2.75653408 2.75469486 2.75286244 2.75103682 2.74921798 2.74740591
 2.74560059 2.74380201 2.74201015 2.740225   2.73844656 2.7366748
 2.7349097  2.73315126 2.73139947 2.7296543  2.72791575 2.7261838
 2.72445843 2.72273964 2.72102741 2.71932172 2.71762257 2.71592994
 2.71424381 2.71256418 2.71089102 2.70922433 2.70756409 2.7059103
 2.70426292 2.70262196 2.70098739 2.69935921 2.6977374  2.69612194
 2.69451284 2.69291006 2.6913136  2.68972345 2.68813958 2.686562
 2.68499068 2.68342561 2.68186679 2.68031418 2.67876779 2.6772276
 2.6756936  2.67416576 2.67264409 2.67112857 2.66961918 2.66811591
 2.66661875 2.66512769 2.6636427  2.66216379 2.66069094 2.65922412
 2.65776334 2.65630858 2.65485983 2.65341706 2.65198028 2.65054946
 2.6491246  2.64770568 2.64629269 2.64488562 2.64348445 2.64208917
 2.64069978 2.63931624 2.63793856 2.63656673 2.63520072 2.63384053
 2.63248614 2.63113755 2.62979473 2.62845768 2.62712639 2.62580084
 2.62448102 2.62316692 2.62185852 2.62055581 2.61925879 2.61796744
 2.61668174 2.61540169 2.61412727 2.61285847 2.61159528 2.61033768
 2.60908567 2.60783923 2.60659835 2.60536302 2.60413323 2.60290896
 2.60169021 2.60047695 2.59926919 2.5980669  2.59687007 2.59567871
 2.59449278 2.59331228 2.5921372  2.59096753 2.58980325 2.58864435
 2.58749083 2.58634267 2.58519985 2.58406238 2.58293022 2.58180339
 2.58068185 2.57956561 2.57845464 2.57734894 2.5762485  2.57515331
 2.57406335 2.57297861 2.57189908 2.57082476 2.56975562 2.56869166
 2.56763286 2.56657922 2.56553073 2.56448737 2.56344912 2.56241599
 2.56138796 2.56036502 2.55934716 2.55833436 2.55732661 2.55632391
 2.55532625 2.5543336  2.55334597 2.55236334 2.5513857  2.55041304
 2.54944534 2.54848261 2.54752481 2.54657196 2.54562403 2.54468101
 2.5437429  2.54280968 2.54188135 2.54095788 2.54003928 2.53912553
 2.53821662 2.53731253 2.53641327 2.53551881 2.53462916 2.53374428
 2.53286419 2.53198887 2.53111829 2.53025247 2.52939138 2.52853502
 2.52768337 2.52683643 2.52599418 2.52515662 2.52432373 2.5234955
 2.52267193 2.521853   2.52103871 2.52022903 2.51942398 2.51862352
 2.51782766 2.51703638 2.51624968 2.51546754 2.51468995 2.5139169
 2.51314839 2.51238441 2.51162493 2.51086996 2.51011949 2.5093735
 2.50863198 2.50789493 2.50716233 2.50643418 2.50571047 2.50499118
 2.5042763  2.50356584 2.50285977 2.50215809 2.50146079 2.50076785
 2.50007928 2.49939505 2.49871517 2.49803961 2.49736838 2.49670146
 2.49603884 2.49538051 2.49472647 2.4940767  2.4934312  2.49278995
 2.49215295 2.49152019 2.49089165 2.49026734 2.48964723 2.48903133
 2.48841961 2.48781208 2.48720872 2.48660953 2.48601449 2.48542359
 2.48483684 2.48425421 2.4836757  2.4831013  2.482531   2.48196479
 2.48140267 2.48084462 2.48029064 2.47974071 2.47919484 2.478653
 2.47811519 2.4775814  2.47705163 2.47652586 2.47600409 2.4754863
 2.4749725  2.47446266 2.47395678 2.47345486 2.47295688 2.47246283
 2.47197271 2.47148651 2.47100422 2.47052584 2.47005134 2.46958073
 2.469114   2.46865113 2.46819212 2.46773697 2.46728565 2.46683817
 2.46639452 2.46595469 2.46551866 2.46508644 2.46465801 2.46423336
 2.46381249 2.46339539 2.46298206 2.46257247 2.46216663 2.46176452
 2.46136614 2.46097149 2.46058054 2.4601933  2.45980976 2.4594299
 2.45905373 2.45868122 2.45831239 2.4579472  2.45758567 2.45722778
 2.45687352 2.45652289 2.45617587 2.45583247 2.45549266 2.45515646
 2.45482383 2.45449479 2.45416932 2.45384741 2.45352906 2.45321426
 2.452903   2.45259527 2.45229106 2.45199038 2.45169321 2.45139954
 2.45110936 2.45082267 2.45053947 2.45025974 2.44998347 2.44971066
 2.44944131 2.44917539 2.44891292 2.44865387 2.44839825 2.44814604
 2.44789724 2.44765183 2.44740982 2.4471712  2.44693596 2.44670409
 2.44647558 2.44625043 2.44602862 2.44581017 2.44559504 2.44538325
 2.44517478 2.44496962 2.44476778 2.44456923 2.44437397 2.44418201
 2.44399332 2.44380791 2.44362576 2.44344687 2.44327123 2.44309884
 2.44292969 2.44276377 2.44260108 2.4424416  2.44228534 2.44213228
 2.44198242 2.44183575 2.44169226 2.44155196 2.44141482 2.44128085
 2.44115004 2.44102238 2.44089786 2.44077648 2.44065824 2.44054312
 2.44043112 2.44032223 2.44021645 2.44011377 2.44001418 2.43991768
 2.43982425 2.4397339  2.43964662 2.4395624  2.43948124 2.43940312
 2.43932805 2.43925601 2.439187   2.43912101 2.43905804 2.43899808
 2.43894113 2.43888717 2.43883621 2.43878823 2.43874324 2.43870122
 2.43866216 2.43862607 2.43859293 2.43856274 2.43853549 2.43851119
 2.43848981 2.43847136 2.43845583 2.43844321 2.4384335  2.43842669
 2.43842278 2.43842176 2.43842362 2.43842836 2.43843597 2.43844645
 2.43845979 2.43847598 2.43849502 2.43851691 2.43854163 2.43856919
 2.43859957 2.43863277 2.43866878 2.43870761 2.43874924 2.43879366
 2.43884088 2.43889089 2.43894367 2.43899923 2.43905756 2.43911866
 2.43918251 2.43924912 2.43931847 2.43939057 2.4394654  2.43954297
 2.43962326 2.43970627 2.439792   2.43988043 2.43997157 2.44006541
 2.44016194 2.44026117 2.44036307 2.44046765 2.4405749  2.44068482
 2.44079741 2.44091265 2.44103054 2.44115107 2.44127425 2.44140007
 2.44152851 2.44165958 2.44179327 2.44192957 2.44206849 2.44221001
 2.44235413 2.44250085 2.44265015 2.44280204 2.44295651 2.44311356
 2.44327317 2.44343535 2.44360009 2.44376738 2.44393723 2.44410962
 2.44428455 2.44446201 2.44464201 2.44482453 2.44500958 2.44519713
 2.4453872  2.44557978 2.44577486 2.44597243 2.4461725  2.44637505
 2.44658009 2.44678761 2.4469976  2.44721005 2.44742497 2.44764235
 2.44786219 2.44808447 2.4483092  2.44853637 2.44876598 2.44899802
 2.44923249 2.44946938 2.44970868 2.4499504  2.45019453 2.45044107
 2.45069    2.45094133 2.45119505 2.45145116 2.45170965 2.45197052
 2.45223377 2.45249938 2.45276735 2.45303769 2.45331039 2.45358543
 2.45386283 2.45414256 2.45442464 2.45470905 2.45499579 2.45528486
 2.45557625 2.45586995 2.45616598 2.45646431 2.45676494 2.45706788
 2.45737312 2.45768065 2.45799046 2.45830256 2.45861695 2.45893361
 2.45925254 2.45957374 2.4598972  2.46022293 2.46055091 2.46088115
 2.46121363 2.46154836 2.46188533 2.46222453 2.46256597 2.46290964
 2.46325553 2.46360364 2.46395397 2.46430652 2.46466127 2.46501823
 2.46537739 2.46573875 2.46610231 2.46646805 2.46683598 2.4672061
 2.46757839 2.46795286 2.4683295  2.46870831 2.46908928 2.46947242
 2.46985771 2.47024515 2.47063475 2.47102649 2.47142037 2.4718164
 2.47221455 2.47261484 2.47301726 2.47342181 2.47382847 2.47423725
 2.47464815 2.47506115 2.47547627 2.47589349 2.4763128  2.47673422
 2.47715773 2.47758333 2.47801101 2.47844078 2.47887263 2.47930655
 2.47974255 2.48018062 2.48062075 2.48106295 2.48150721 2.48195352
 2.48240189 2.4828523  2.48330476 2.48375927 2.48421582 2.4846744
 2.48513502 2.48559767 2.48606234 2.48652904 2.48699776 2.4874685
 2.48794125 2.48841602 2.48889279 2.48937157 2.48985235 2.49033513
 2.4908199  2.49130667 2.49179543 2.49228618 2.49277891 2.49327362
 2.49377031 2.49426897 2.49476961 2.49527221 2.49577679 2.49628332
 2.49679182 2.49730227 2.49781467 2.49832903 2.49884534 2.49936359
 2.49988379 2.50040592 2.50093    2.50145601 2.50198395 2.50251381
 2.50304561 2.50357933 2.50411496 2.50465252 2.50519199 2.50573338
 2.50627667 2.50682187 2.50736898 2.50791798 2.50846889 2.50902169
 2.50957639 2.51013297 2.51069145 2.51125181 2.51181405 2.51237818
 2.51294418 2.51351206 2.51408181 2.51465343 2.51522692 2.51580228
 2.51637949 2.51695857 2.51753951 2.5181223  2.51870694 2.51929344
 2.51988178 2.52047197 2.521064   2.52165788 2.52225359 2.52285114
 2.52345052 2.52405173 2.52465477 2.52525964 2.52586633 2.52647485
 2.52708518 2.52769734 2.52831131 2.52892708 2.52954468 2.53016408
 2.53078528 2.53140829 2.53203311 2.53265972 2.53328813 2.53391833
 2.53455033 2.53518412 2.5358197  2.53645706 2.53709621 2.53773714
 2.53837985 2.53902435 2.53967061 2.54031865 2.54096847 2.54162005
 2.5422734  2.54292852 2.5435854  2.54424404 2.54490445 2.54556661
 2.54623053 2.5468962  2.54756362 2.5482328  2.54890372 2.54957639
 2.55025081 2.55092696 2.55160486 2.5522845  2.55296587 2.55364898
 2.55433383 2.5550204  2.5557087  2.55639874 2.5570905  2.55778398
 2.55847919 2.55917611 2.55987476 2.56057512 2.5612772  2.561981
 2.5626865  2.56339372 2.56410265 2.56481328 2.56552562 2.56623966
 2.56695541 2.56767285 2.568392   2.56911285 2.56983538 2.57055962
 2.57128554 2.57201316 2.57274247 2.57347347 2.57420615 2.57494052
 2.57567657 2.5764143  2.57715372 2.57789481 2.57863758 2.57938203
 2.58012815 2.58087595 2.58162542 2.58237656 2.58312937 2.58388384
 2.58463998 2.58539779 2.58615726 2.5869184  2.58768119 2.58844565
 2.58921176 2.58997953 2.59074896 2.59152004 2.59229277 2.59306716
 2.5938432  2.59462088 2.59540022 2.5961812  2.59696383 2.5977481
 2.59853402 2.59932158 2.60011078 2.60090162 2.6016941  2.60248822
 2.60328397 2.60408136 2.60488038 2.60568104 2.60648333 2.60728725
 2.6080928  2.60889998 2.60970879 2.61051923 2.61133129 2.61214498
 2.61296029 2.61377722 2.61459578 2.61541596 2.61623776 2.61706117
 2.61788621 2.61871286 2.61954113 2.62037102 2.62120252 2.62203563
 2.62287036 2.6237067  2.62454465 2.62538421 2.62622538 2.62706816
 2.62791255 2.62875855 2.62960615 2.63045536 2.63130617 2.63215859
 2.63301261 2.63386823 2.63472546 2.63558429]
t = [1.08956065e+09 1.08956071e+09 1.08956077e+09 1.08956082e+09
 1.08956088e+09 1.08956094e+09 1.08956100e+09 1.08956106e+09
 1.08956112e+09 1.08956117e+09 1.08956123e+09 1.08956129e+09
 1.08956135e+09 1.08956141e+09 1.08956146e+09 1.08956152e+09
 1.08956158e+09 1.08956164e+09 1.08956170e+09 1.08956175e+09
 1.08956181e+09 1.08956187e+09 1.08956193e+09 1.08956199e+09
 1.08956204e+09 1.08956210e+09 1.08956216e+09 1.08956222e+09
 1.08956228e+09 1.08956234e+09 1.08956239e+09 1.08956245e+09
 1.08956251e+09 1.08956257e+09 1.08956263e+09 1.08956268e+09
 1.08956274e+09 1.08956280e+09 1.08956286e+09 1.08956292e+09
 1.08956297e+09 1.08956303e+09 1.08956309e+09 1.08956315e+09
 1.08956321e+09 1.08956327e+09 1.08956332e+09 1.08956338e+09
 1.08956344e+09 1.08956350e+09 1.08956356e+09 1.08956361e+09
 1.08956367e+09 1.08956373e+09 1.08956379e+09 1.08956385e+09
 1.08956390e+09 1.08956396e+09 1.08956402e+09 1.08956408e+09
 1.08956414e+09 1.08956419e+09 1.08956425e+09 1.08956431e+09
 1.08956437e+09 1.08956443e+09 1.08956449e+09 1.08956454e+09
 1.08956460e+09 1.08956466e+09 1.08956472e+09 1.08956478e+09
 1.08956483e+09 1.08956489e+09 1.08956495e+09 1.08956501e+09
 1.08956507e+09 1.08956512e+09 1.08956518e+09 1.08956524e+09
 1.08956530e+09 1.08956536e+09 1.08956542e+09 1.08956547e+09
 1.08956553e+09 1.08956559e+09 1.08956565e+09 1.08956571e+09
 1.08956576e+09 1.08956582e+09 1.08956588e+09 1.08956594e+09
 1.08956600e+09 1.08956605e+09 1.08956611e+09 1.08956617e+09
 1.08956623e+09 1.08956629e+09 1.08956634e+09 1.08956640e+09
 1.08956646e+09 1.08956652e+09 1.08956658e+09 1.08956664e+09
 1.08956669e+09 1.08956675e+09 1.08956681e+09 1.08956687e+09
 1.08956693e+09 1.08956698e+09 1.08956704e+09 1.08956710e+09
 1.08956716e+09 1.08956722e+09 1.08956727e+09 1.08956733e+09
 1.08956739e+09 1.08956745e+09 1.08956751e+09 1.08956757e+09
 1.08956762e+09 1.08956768e+09 1.08956774e+09 1.08956780e+09
 1.08956786e+09 1.08956791e+09 1.08956797e+09 1.08956803e+09
 1.08956809e+09 1.08956815e+09 1.08956820e+09 1.08956826e+09
 1.08956832e+09 1.08956838e+09 1.08956844e+09 1.08956849e+09
 1.08956855e+09 1.08956861e+09 1.08956867e+09 1.08956873e+09
 1.08956879e+09 1.08956884e+09 1.08956890e+09 1.08956896e+09
 1.08956902e+09 1.08956908e+09 1.08956913e+09 1.08956919e+09
 1.08956925e+09 1.08956931e+09 1.08956937e+09 1.08956942e+09
 1.08956948e+09 1.08956954e+09 1.08956960e+09 1.08956966e+09
 1.08956972e+09 1.08956977e+09 1.08956983e+09 1.08956989e+09
 1.08956995e+09 1.08957001e+09 1.08957006e+09 1.08957012e+09
 1.08957018e+09 1.08957024e+09 1.08957030e+09 1.08957035e+09
 1.08957041e+09 1.08957047e+09 1.08957053e+09 1.08957059e+09
 1.08957064e+09 1.08957070e+09 1.08957076e+09 1.08957082e+09
 1.08957088e+09 1.08957094e+09 1.08957099e+09 1.08957105e+09
 1.08957111e+09 1.08957117e+09 1.08957123e+09 1.08957128e+09
 1.08957134e+09 1.08957140e+09 1.08957146e+09 1.08957152e+09
 1.08957157e+09 1.08957163e+09 1.08957169e+09 1.08957175e+09
 1.08957181e+09 1.08957187e+09 1.08957192e+09 1.08957198e+09
 1.08957204e+09 1.08957210e+09 1.08957216e+09 1.08957221e+09
 1.08957227e+09 1.08957233e+09 1.08957239e+09 1.08957245e+09
 1.08957250e+09 1.08957256e+09 1.08957262e+09 1.08957268e+09
 1.08957274e+09 1.08957279e+09 1.08957285e+09 1.08957291e+09
 1.08957297e+09 1.08957303e+09 1.08957309e+09 1.08957314e+09
 1.08957320e+09 1.08957326e+09 1.08957332e+09 1.08957338e+09
 1.08957343e+09 1.08957349e+09 1.08957355e+09 1.08957361e+09
 1.08957367e+09 1.08957372e+09 1.08957378e+09 1.08957384e+09
 1.08957390e+09 1.08957396e+09 1.08957402e+09 1.08957407e+09
 1.08957413e+09 1.08957419e+09 1.08957425e+09 1.08957431e+09
 1.08957436e+09 1.08957442e+09 1.08957448e+09 1.08957454e+09
 1.08957460e+09 1.08957465e+09 1.08957471e+09 1.08957477e+09
 1.08957483e+09 1.08957489e+09 1.08957494e+09 1.08957500e+09
 1.08957506e+09 1.08957512e+09 1.08957518e+09 1.08957524e+09
 1.08957529e+09 1.08957535e+09 1.08957541e+09 1.08957547e+09
 1.08957553e+09 1.08957558e+09 1.08957564e+09 1.08957570e+09
 1.08957576e+09 1.08957582e+09 1.08957587e+09 1.08957593e+09
 1.08957599e+09 1.08957605e+09 1.08957611e+09 1.08957617e+09
 1.08957622e+09 1.08957628e+09 1.08957634e+09 1.08957640e+09
 1.08957646e+09 1.08957651e+09 1.08957657e+09 1.08957663e+09
 1.08957669e+09 1.08957675e+09 1.08957680e+09 1.08957686e+09
 1.08957692e+09 1.08957698e+09 1.08957704e+09 1.08957709e+09
 1.08957715e+09 1.08957721e+09 1.08957727e+09 1.08957733e+09
 1.08957739e+09 1.08957744e+09 1.08957750e+09 1.08957756e+09
 1.08957762e+09 1.08957768e+09 1.08957773e+09 1.08957779e+09
 1.08957785e+09 1.08957791e+09 1.08957797e+09 1.08957802e+09
 1.08957808e+09 1.08957814e+09 1.08957820e+09 1.08957826e+09
 1.08957832e+09 1.08957837e+09 1.08957843e+09 1.08957849e+09
 1.08957855e+09 1.08957861e+09 1.08957866e+09 1.08957872e+09
 1.08957878e+09 1.08957884e+09 1.08957890e+09 1.08957895e+09
 1.08957901e+09 1.08957907e+09 1.08957913e+09 1.08957919e+09
 1.08957924e+09 1.08957930e+09 1.08957936e+09 1.08957942e+09
 1.08957948e+09 1.08957954e+09 1.08957959e+09 1.08957965e+09
 1.08957971e+09 1.08957977e+09 1.08957983e+09 1.08957988e+09
 1.08957994e+09 1.08958000e+09 1.08958006e+09 1.08958012e+09
 1.08958017e+09 1.08958023e+09 1.08958029e+09 1.08958035e+09
 1.08958041e+09 1.08958047e+09 1.08958052e+09 1.08958058e+09
 1.08958064e+09 1.08958070e+09 1.08958076e+09 1.08958081e+09
 1.08958087e+09 1.08958093e+09 1.08958099e+09 1.08958105e+09
 1.08958110e+09 1.08958116e+09 1.08958122e+09 1.08958128e+09
 1.08958134e+09 1.08958139e+09 1.08958145e+09 1.08958151e+09
 1.08958157e+09 1.08958163e+09 1.08958169e+09 1.08958174e+09
 1.08958180e+09 1.08958186e+09 1.08958192e+09 1.08958198e+09
 1.08958203e+09 1.08958209e+09 1.08958215e+09 1.08958221e+09
 1.08958227e+09 1.08958232e+09 1.08958238e+09 1.08958244e+09
 1.08958250e+09 1.08958256e+09 1.08958262e+09 1.08958267e+09
 1.08958273e+09 1.08958279e+09 1.08958285e+09 1.08958291e+09
 1.08958296e+09 1.08958302e+09 1.08958308e+09 1.08958314e+09
 1.08958320e+09 1.08958325e+09 1.08958331e+09 1.08958337e+09
 1.08958343e+09 1.08958349e+09 1.08958354e+09 1.08958360e+09
 1.08958366e+09 1.08958372e+09 1.08958378e+09 1.08958384e+09
 1.08958389e+09 1.08958395e+09 1.08958401e+09 1.08958407e+09
 1.08958413e+09 1.08958418e+09 1.08958424e+09 1.08958430e+09
 1.08958436e+09 1.08958442e+09 1.08958447e+09 1.08958453e+09
 1.08958459e+09 1.08958465e+09 1.08958471e+09 1.08958477e+09
 1.08958482e+09 1.08958488e+09 1.08958494e+09 1.08958500e+09
 1.08958506e+09 1.08958511e+09 1.08958517e+09 1.08958523e+09
 1.08958529e+09 1.08958535e+09 1.08958540e+09 1.08958546e+09
 1.08958552e+09 1.08958558e+09 1.08958564e+09 1.08958569e+09
 1.08958575e+09 1.08958581e+09 1.08958587e+09 1.08958593e+09
 1.08958599e+09 1.08958604e+09 1.08958610e+09 1.08958616e+09
 1.08958622e+09 1.08958628e+09 1.08958633e+09 1.08958639e+09
 1.08958645e+09 1.08958651e+09 1.08958657e+09 1.08958662e+09
 1.08958668e+09 1.08958674e+09 1.08958680e+09 1.08958686e+09
 1.08958692e+09 1.08958697e+09 1.08958703e+09 1.08958709e+09
 1.08958715e+09 1.08958721e+09 1.08958726e+09 1.08958732e+09
 1.08958738e+09 1.08958744e+09 1.08958750e+09 1.08958755e+09
 1.08958761e+09 1.08958767e+09 1.08958773e+09 1.08958779e+09
 1.08958784e+09 1.08958790e+09 1.08958796e+09 1.08958802e+09
 1.08958808e+09 1.08958814e+09 1.08958819e+09 1.08958825e+09
 1.08958831e+09 1.08958837e+09 1.08958843e+09 1.08958848e+09
 1.08958854e+09 1.08958860e+09 1.08958866e+09 1.08958872e+09
 1.08958877e+09 1.08958883e+09 1.08958889e+09 1.08958895e+09
 1.08958901e+09 1.08958907e+09 1.08958912e+09 1.08958918e+09
 1.08958924e+09 1.08958930e+09 1.08958936e+09 1.08958941e+09
 1.08958947e+09 1.08958953e+09 1.08958959e+09 1.08958965e+09
 1.08958970e+09 1.08958976e+09 1.08958982e+09 1.08958988e+09
 1.08958994e+09 1.08958999e+09 1.08959005e+09 1.08959011e+09
 1.08959017e+09 1.08959023e+09 1.08959029e+09 1.08959034e+09
 1.08959040e+09 1.08959046e+09 1.08959052e+09 1.08959058e+09
 1.08959063e+09 1.08959069e+09 1.08959075e+09 1.08959081e+09
 1.08959087e+09 1.08959092e+09 1.08959098e+09 1.08959104e+09
 1.08959110e+09 1.08959116e+09 1.08959122e+09 1.08959127e+09
 1.08959133e+09 1.08959139e+09 1.08959145e+09 1.08959151e+09
 1.08959156e+09 1.08959162e+09 1.08959168e+09 1.08959174e+09
 1.08959180e+09 1.08959185e+09 1.08959191e+09 1.08959197e+09
 1.08959203e+09 1.08959209e+09 1.08959214e+09 1.08959220e+09
 1.08959226e+09 1.08959232e+09 1.08959238e+09 1.08959244e+09
 1.08959249e+09 1.08959255e+09 1.08959261e+09 1.08959267e+09
 1.08959273e+09 1.08959278e+09 1.08959284e+09 1.08959290e+09
 1.08959296e+09 1.08959302e+09 1.08959307e+09 1.08959313e+09
 1.08959319e+09 1.08959325e+09 1.08959331e+09 1.08959337e+09
