name =JUICE_ROI_GAN_4_4_02
flyby = ['2034 NOV 18 09:58:51', '2034 NOV 19 09:58:51']
Observation TW = <SpiceCell dtype = 1, length = 0, size = 3400, card = 14, is_set = 1, adjust = 0, init = 1, base = 94193961975248, data = 94193961975296>
Res(t) = [0.92248364 0.92125354 0.92002402 0.91879509 0.91756673 0.91633897
 0.9151118  0.91388523 0.91265926 0.91143391 0.91020917 0.90898505
 0.90776156 0.9065387  0.90531648 0.9040949  0.90287396 0.90165368
 0.90043405 0.89921509 0.8979968  0.89677918 0.89556225 0.89434599
 0.89313043 0.89191557 0.89070141 0.88948795 0.88827521 0.88706319
 0.8858519  0.88464134 0.88343151 0.88222243 0.88101409 0.87980651
 0.87859969 0.87739364 0.87618836 0.87498386 0.87378015 0.87257722
 0.87137509 0.87017377 0.86897325 0.86777355 0.86657467 0.86537662
 0.8641794  0.86298303 0.8617875  0.86059282 0.85939901 0.85820605
 0.85701398 0.85582277 0.85463246 0.85344304 0.85225451 0.85106689
 0.84988018 0.84869439 0.84750952 0.84632559 0.84514259 0.84396054
 0.84277943 0.84159929 0.84042011 0.8392419  0.83806467 0.83688843
 0.83571317 0.83453892 0.83336567 0.83219343 0.83102221 0.82985202
 0.82868286 0.82751474 0.82634767 0.82518165 0.82401669 0.82285281
 0.82168999 0.82052826 0.81936762 0.81820807 0.81704963 0.8158923
 0.81473609 0.813581   0.81242705 0.81127423 0.81012256 0.80897205
 0.80782269 0.80667451 0.8055275  0.80438167 0.80323703 0.8020936
 0.80095136 0.79981034 0.79867054 0.79753197 0.79639463 0.79525853
 0.79412369 0.7929901  0.79185777 0.79072672 0.78959694 0.78846845
 0.78734126 0.78621537 0.78509079 0.78396752 0.78284558 0.78172498
 0.78060571 0.77948779 0.77837122 0.77725602 0.77614219 0.77502973
 0.77391866 0.77280898 0.7717007  0.77059383 0.76948838 0.76838435
 0.76728175 0.76618059 0.76508088 0.76398262 0.76288582 0.7617905
 0.76069665 0.75960428 0.75851341 0.75742404 0.75633617 0.75524982
 0.754165   0.75308171 0.75199995 0.75091974 0.74984109 0.748764
 0.74768848 0.74661454 0.74554218 0.74447141 0.74340225 0.7423347
 0.74126876 0.74020444 0.73914176 0.73808072 0.73702133 0.73596359
 0.73490751 0.7338531  0.73280038 0.73174933 0.73069999 0.72965234
 0.7286064  0.72756219 0.72651969 0.72547893 0.72443991 0.72340263
 0.72236712 0.72133336 0.72030138 0.71927117 0.71824276 0.71721613
 0.71619131 0.7151683  0.7141471  0.71312773 0.7121102  0.7110945
 0.71008065 0.70906865 0.70805852 0.70705026 0.70604388 0.70503938
 0.70403678 0.70303608 0.70203729 0.70104041 0.70004545 0.69905243
 0.69806135 0.69707221 0.69608503 0.69509981 0.69411655 0.69313528
 0.69215598 0.69117868 0.69020338 0.68923008 0.6882588  0.68728954
 0.6863223  0.6853571  0.68439395 0.68343284 0.68247379 0.68151681
 0.6805619  0.67960906 0.67865832 0.67770967 0.67676312 0.67581868
 0.67487635 0.67393615 0.67299808 0.67206214 0.67112835 0.67019671
 0.66926722 0.66833991 0.66741476 0.6664918  0.66557102 0.66465244
 0.66373605 0.66282187 0.66190991 0.66100017 0.66009266 0.65918738
 0.65828434 0.65738356 0.65648503 0.65558876 0.65469476 0.65380303
 0.65291359 0.65202644 0.65114158 0.65025903 0.64937878 0.64850085
 0.64762525 0.64675197 0.64588103 0.64501243 0.64414617 0.64328228
 0.64242074 0.64156158 0.64070478 0.63985037 0.63899834 0.63814871
 0.63730148 0.63645665 0.63561424 0.63477424 0.63393667 0.63310152
 0.63226882 0.63143856 0.63061074 0.62978539 0.62896249 0.62814206
 0.6273241  0.62650862 0.62569563 0.62488513 0.62407712 0.62327161
 0.62246862 0.62166814 0.62087017 0.62007473 0.61928183 0.61849146
 0.61770363 0.61691835 0.61613562 0.61535545 0.61457785 0.61380281
 0.61303036 0.61226048 0.61149318 0.61072848 0.60996637 0.60920687
 0.60844997 0.60769569 0.60694402 0.60619497 0.60544855 0.60470477
 0.60396362 0.60322511 0.60248925 0.60175604 0.60102549 0.6002976
 0.59957238 0.59884983 0.59812996 0.59741277 0.59669826 0.59598644
 0.59527732 0.5945709  0.59386718 0.59316617 0.59246788 0.5917723
 0.59107944 0.59038931 0.58970191 0.58901724 0.58833531 0.58765613
 0.58697969 0.58630601 0.58563508 0.58496691 0.58430151 0.58363887
 0.582979   0.58232191 0.5816676  0.58101607 0.58036733 0.57972138
 0.57907822 0.57843787 0.57780031 0.57716556 0.57653362 0.57590449
 0.57527818 0.57465469 0.57403402 0.57341617 0.57280116 0.57218898
 0.57157964 0.57097313 0.57036947 0.56976865 0.56917068 0.56857557
 0.56798331 0.56739391 0.56680736 0.56622369 0.56564287 0.56506493
 0.56448986 0.56391767 0.56334835 0.56278192 0.56221836 0.5616577
 0.56109992 0.56054503 0.55999303 0.55944393 0.55889773 0.55835443
 0.55781403 0.55727654 0.55674195 0.55621027 0.55568151 0.55515565
 0.55463272 0.5541127  0.5535956  0.55308142 0.55257016 0.55206184
 0.55155643 0.55105396 0.55055442 0.55005781 0.54956413 0.54907339
 0.54858559 0.54810072 0.5476188  0.54713982 0.54666378 0.54619068
 0.54572053 0.54525333 0.54478908 0.54432777 0.54386942 0.54341402
 0.54296157 0.54251207 0.54206554 0.54162195 0.54118132 0.54074366
 0.54030895 0.53987719 0.5394484  0.53902257 0.53859971 0.5381798
 0.53776286 0.53734888 0.53693786 0.53652981 0.53612472 0.5357226
 0.53532345 0.53492726 0.53453404 0.53414378 0.53375649 0.53337217
 0.53299081 0.53261242 0.532237   0.53186455 0.53149506 0.53112854
 0.53076499 0.5304044  0.53004678 0.52969213 0.52934044 0.52899172
 0.52864596 0.52830317 0.52796335 0.52762648 0.52729258 0.52696165
 0.52663368 0.52630866 0.52598661 0.52566752 0.52535139 0.52503822
 0.52472801 0.52442076 0.52411646 0.52381511 0.52351673 0.52322129
 0.52292881 0.52263928 0.5223527  0.52206906 0.52178838 0.52151064
 0.52123585 0.52096401 0.5206951  0.52042914 0.52016612 0.51990603
 0.51964889 0.51939468 0.5191434  0.51889506 0.51864964 0.51840716
 0.5181676  0.51793098 0.51769727 0.51746649 0.51723862 0.51701368
 0.51679165 0.51657254 0.51635634 0.51614305 0.51593267 0.5157252
 0.51552063 0.51531897 0.5151202  0.51492434 0.51473137 0.51454129
 0.5143541  0.51416981 0.5139884  0.51380987 0.51363423 0.51346146
 0.51329157 0.51312456 0.51296042 0.51279915 0.51264074 0.5124852
 0.51233252 0.5121827  0.51203573 0.51189162 0.51175035 0.51161194
 0.51147637 0.51134364 0.51121375 0.51108669 0.51096247 0.51084108
 0.51072251 0.51060677 0.51049385 0.51038374 0.51027646 0.51017198
 0.51007031 0.50997144 0.50987538 0.50978211 0.50969164 0.50960396
 0.50951907 0.50943696 0.50935763 0.50928108 0.50920731 0.50913631
 0.50906807 0.5090026  0.50893989 0.50887993 0.50882273 0.50876828
 0.50871657 0.50866761 0.50862138 0.50857789 0.50853712 0.50849909
 0.50846378 0.50843118 0.50840131 0.50837414 0.50834968 0.50832793
 0.50830887 0.50829251 0.50827885 0.50826787 0.50825957 0.50825395
 0.50825101 0.50825074 0.50825314 0.5082582  0.50826592 0.50827629
 0.50828932 0.50830499 0.5083233  0.50834426 0.50836784 0.50839406
 0.50842289 0.50845435 0.50848843 0.50852512 0.50856442 0.50860631
 0.50865081 0.5086979  0.50874759 0.50879985 0.5088547  0.50891212
 0.50897212 0.50903468 0.50909981 0.50916749 0.50923773 0.50931052
 0.50938585 0.50946372 0.50954412 0.50962706 0.50971252 0.50980051
 0.50989101 0.50998402 0.51007953 0.51017755 0.51027807 0.51038108
 0.51048658 0.51059456 0.51070502 0.51081795 0.51093336 0.51105122
 0.51117155 0.51129433 0.51141956 0.51154723 0.51167734 0.51180989
 0.51194486 0.51208227 0.51222209 0.51236433 0.51250897 0.51265602
 0.51280548 0.51295732 0.51311156 0.51326818 0.51342719 0.51358857
 0.51375232 0.51391843 0.5140869  0.51425773 0.51443091 0.51460644
 0.5147843  0.5149645  0.51514703 0.51533188 0.51551906 0.51570855
 0.51590035 0.51609445 0.51629085 0.51648955 0.51669053 0.5168938
 0.51709935 0.51730718 0.51751727 0.51772962 0.51794424 0.51816111
 0.51838022 0.51860158 0.51882518 0.51905101 0.51927907 0.51950935
 0.51974185 0.51997656 0.52021347 0.52045259 0.52069391 0.52093742
 0.52118311 0.52143099 0.52168104 0.52193327 0.52218766 0.52244421
 0.52270291 0.52296377 0.52322677 0.52349191 0.52375919 0.5240286
 0.52430013 0.52457378 0.52484955 0.52512743 0.52540741 0.52568949
 0.52597366 0.52625992 0.52654827 0.52683869 0.52713119 0.52742575
 0.52772238 0.52802107 0.52832181 0.5286246  0.52892943 0.52923629
 0.52954519 0.52985612 0.53016907 0.53048404 0.53080102 0.53112001
 0.531441   0.53176398 0.53208896 0.53241592 0.53274487 0.53307579
 0.53340869 0.53374355 0.53408037 0.53441915 0.53475989 0.53510256
 0.53544718 0.53579374 0.53614223 0.53649264 0.53684498 0.53719923
 0.5375554  0.53791347 0.53827344 0.53863531 0.53899908 0.53936473
 0.53973226 0.54010167 0.54047295 0.5408461  0.54122111 0.54159798
 0.5419767  0.54235727 0.54273968 0.54312393 0.54351002 0.54389793
 0.54428767 0.54467922 0.54507259 0.54546777 0.54586476 0.54626354
 0.54666412 0.54706649 0.54747065 0.54787658 0.5482843  0.54869378
 0.54910503 0.54951805 0.54993282 0.55034934 0.55076761 0.55118763
 0.55160939 0.55203288 0.5524581  0.55288504 0.55331371 0.55374409
 0.55417618 0.55460998 0.55504549 0.55548269 0.55592158 0.55636217
 0.55680443 0.55724838 0.55769401 0.5581413  0.55859026 0.55904089
 0.55949317 0.55994711 0.56040269 0.56085992 0.56131879 0.5617793
 0.56224144 0.56270521 0.5631706  0.56363761 0.56410623 0.56457647
 0.56504831 0.56552175 0.56599679 0.56647342 0.56695165 0.56743146
 0.56791285 0.56839581 0.56888035 0.56936646 0.56985414 0.57034337
 0.57083416 0.5713265  0.5718204  0.57231583 0.57281281 0.57331132
 0.57381137 0.57431294 0.57481604 0.57532066 0.5758268  0.57633445
 0.5768436  0.57735427 0.57786643 0.57838009 0.57889525 0.57941189
 0.57993002 0.58044964 0.58097073 0.5814933  0.58201733 0.58254284
 0.58306981 0.58359823 0.58412812 0.58465946 0.58519224 0.58572647
 0.58626215 0.58679926 0.58733781 0.58787778 0.58841919 0.58896202
 0.58950627 0.59005193 0.59059901 0.5911475  0.5916974  0.5922487
 0.5928014  0.5933555  0.59391099 0.59446787 0.59502613 0.59558578
 0.59614681 0.59670922 0.597273   0.59783815 0.59840467 0.59897255
 0.59954179 0.60011239 0.60068434 0.60125764 0.60183229 0.60240829
 0.60298563 0.6035643  0.60414431 0.60472566 0.60530833 0.60589233
 0.60647766 0.6070643  0.60765227 0.60824154 0.60883213 0.60942403
 0.61001723 0.61061174 0.61120755 0.61180465 0.61240305 0.61300274
 0.61360372 0.61420599 0.61480954 0.61541437 0.61602048 0.61662787
 0.61723653 0.61784645 0.61845765 0.61907011 0.61968383 0.62029882
 0.62091506 0.62153255 0.6221513  0.6227713  0.62339254 0.62401503
 0.62463876 0.62526373 0.62588994 0.62651738 0.62714606 0.62777597
 0.6284071  0.62903946 0.62967305 0.63030785 0.63094387 0.63158111
 0.63221957 0.63285923 0.63350011 0.6341422  0.63478549 0.63542998
 0.63607567 0.63672257 0.63737066 0.63801995 0.63867042 0.6393221
 0.63997495 0.640629   0.64128423 0.64194065 0.64259824 0.64325702
 0.64391697 0.6445781  0.6452404  0.64590387 0.64656851 0.64723433
 0.6479013  0.64856944 0.64923875 0.64990921 0.65058084 0.65125362
 0.65192756 0.65260265 0.6532789  0.6539563  0.65463484 0.65531453
 0.65599537 0.65667736 0.65736049 0.65804476 0.65873017 0.65941671
 0.6601044  0.66079322 0.66148318 0.66217426 0.66286648 0.66355983
 0.66425431 0.66494992 0.66564665 0.66634451 0.66704349 0.66774359
 0.66844482 0.66914716 0.66985063 0.67055521 0.6712609  0.67196771
 0.67267564 0.67338468 0.67409483 0.67480609 0.67551846 0.67623194
 0.67694653 0.67766222 0.67837902 0.67909692 0.67981593 0.68053604
 0.68125726 0.68197957 0.68270298 0.68342749 0.68415311 0.68487981
 0.68560762 0.68633652 0.68706652 0.68779761 0.68852979 0.68926307
 0.68999744 0.6907329  0.69146945 0.69220709 0.69294583 0.69368565
 0.69442656 0.69516856 0.69591164 0.69665581]
t = [1.10072880e+09 1.10072889e+09 1.10072897e+09 1.10072906e+09
 1.10072915e+09 1.10072923e+09 1.10072932e+09 1.10072941e+09
 1.10072949e+09 1.10072958e+09 1.10072967e+09 1.10072975e+09
 1.10072984e+09 1.10072992e+09 1.10073001e+09 1.10073010e+09
 1.10073018e+09 1.10073027e+09 1.10073036e+09 1.10073044e+09
 1.10073053e+09 1.10073062e+09 1.10073070e+09 1.10073079e+09
 1.10073088e+09 1.10073096e+09 1.10073105e+09 1.10073114e+09
 1.10073122e+09 1.10073131e+09 1.10073139e+09 1.10073148e+09
 1.10073157e+09 1.10073165e+09 1.10073174e+09 1.10073183e+09
 1.10073191e+09 1.10073200e+09 1.10073209e+09 1.10073217e+09
 1.10073226e+09 1.10073235e+09 1.10073243e+09 1.10073252e+09
 1.10073261e+09 1.10073269e+09 1.10073278e+09 1.10073287e+09
 1.10073295e+09 1.10073304e+09 1.10073312e+09 1.10073321e+09
 1.10073330e+09 1.10073338e+09 1.10073347e+09 1.10073356e+09
 1.10073364e+09 1.10073373e+09 1.10073382e+09 1.10073390e+09
 1.10073399e+09 1.10073408e+09 1.10073416e+09 1.10073425e+09
 1.10073434e+09 1.10073442e+09 1.10073451e+09 1.10073459e+09
 1.10073468e+09 1.10073477e+09 1.10073485e+09 1.10073494e+09
 1.10073503e+09 1.10073511e+09 1.10073520e+09 1.10073529e+09
 1.10073537e+09 1.10073546e+09 1.10073555e+09 1.10073563e+09
 1.10073572e+09 1.10073581e+09 1.10073589e+09 1.10073598e+09
 1.10073607e+09 1.10073615e+09 1.10073624e+09 1.10073632e+09
 1.10073641e+09 1.10073650e+09 1.10073658e+09 1.10073667e+09
 1.10073676e+09 1.10073684e+09 1.10073693e+09 1.10073702e+09
 1.10073710e+09 1.10073719e+09 1.10073728e+09 1.10073736e+09
 1.10073745e+09 1.10073754e+09 1.10073762e+09 1.10073771e+09
 1.10073779e+09 1.10073788e+09 1.10073797e+09 1.10073805e+09
 1.10073814e+09 1.10073823e+09 1.10073831e+09 1.10073840e+09
 1.10073849e+09 1.10073857e+09 1.10073866e+09 1.10073875e+09
 1.10073883e+09 1.10073892e+09 1.10073901e+09 1.10073909e+09
 1.10073918e+09 1.10073927e+09 1.10073935e+09 1.10073944e+09
 1.10073952e+09 1.10073961e+09 1.10073970e+09 1.10073978e+09
 1.10073987e+09 1.10073996e+09 1.10074004e+09 1.10074013e+09
 1.10074022e+09 1.10074030e+09 1.10074039e+09 1.10074048e+09
 1.10074056e+09 1.10074065e+09 1.10074074e+09 1.10074082e+09
 1.10074091e+09 1.10074099e+09 1.10074108e+09 1.10074117e+09
 1.10074125e+09 1.10074134e+09 1.10074143e+09 1.10074151e+09
 1.10074160e+09 1.10074169e+09 1.10074177e+09 1.10074186e+09
 1.10074195e+09 1.10074203e+09 1.10074212e+09 1.10074221e+09
 1.10074229e+09 1.10074238e+09 1.10074247e+09 1.10074255e+09
 1.10074264e+09 1.10074272e+09 1.10074281e+09 1.10074290e+09
 1.10074298e+09 1.10074307e+09 1.10074316e+09 1.10074324e+09
 1.10074333e+09 1.10074342e+09 1.10074350e+09 1.10074359e+09
 1.10074368e+09 1.10074376e+09 1.10074385e+09 1.10074394e+09
 1.10074402e+09 1.10074411e+09 1.10074419e+09 1.10074428e+09
 1.10074437e+09 1.10074445e+09 1.10074454e+09 1.10074463e+09
 1.10074471e+09 1.10074480e+09 1.10074489e+09 1.10074497e+09
 1.10074506e+09 1.10074515e+09 1.10074523e+09 1.10074532e+09
 1.10074541e+09 1.10074549e+09 1.10074558e+09 1.10074567e+09
 1.10074575e+09 1.10074584e+09 1.10074592e+09 1.10074601e+09
 1.10074610e+09 1.10074618e+09 1.10074627e+09 1.10074636e+09
 1.10074644e+09 1.10074653e+09 1.10074662e+09 1.10074670e+09
 1.10074679e+09 1.10074688e+09 1.10074696e+09 1.10074705e+09
 1.10074714e+09 1.10074722e+09 1.10074731e+09 1.10074739e+09
 1.10074748e+09 1.10074757e+09 1.10074765e+09 1.10074774e+09
 1.10074783e+09 1.10074791e+09 1.10074800e+09 1.10074809e+09
 1.10074817e+09 1.10074826e+09 1.10074835e+09 1.10074843e+09
 1.10074852e+09 1.10074861e+09 1.10074869e+09 1.10074878e+09
 1.10074887e+09 1.10074895e+09 1.10074904e+09 1.10074912e+09
 1.10074921e+09 1.10074930e+09 1.10074938e+09 1.10074947e+09
 1.10074956e+09 1.10074964e+09 1.10074973e+09 1.10074982e+09
 1.10074990e+09 1.10074999e+09 1.10075008e+09 1.10075016e+09
 1.10075025e+09 1.10075034e+09 1.10075042e+09 1.10075051e+09
 1.10075059e+09 1.10075068e+09 1.10075077e+09 1.10075085e+09
 1.10075094e+09 1.10075103e+09 1.10075111e+09 1.10075120e+09
 1.10075129e+09 1.10075137e+09 1.10075146e+09 1.10075155e+09
 1.10075163e+09 1.10075172e+09 1.10075181e+09 1.10075189e+09
 1.10075198e+09 1.10075207e+09 1.10075215e+09 1.10075224e+09
 1.10075232e+09 1.10075241e+09 1.10075250e+09 1.10075258e+09
 1.10075267e+09 1.10075276e+09 1.10075284e+09 1.10075293e+09
 1.10075302e+09 1.10075310e+09 1.10075319e+09 1.10075328e+09
 1.10075336e+09 1.10075345e+09 1.10075354e+09 1.10075362e+09
 1.10075371e+09 1.10075379e+09 1.10075388e+09 1.10075397e+09
 1.10075405e+09 1.10075414e+09 1.10075423e+09 1.10075431e+09
 1.10075440e+09 1.10075449e+09 1.10075457e+09 1.10075466e+09
 1.10075475e+09 1.10075483e+09 1.10075492e+09 1.10075501e+09
 1.10075509e+09 1.10075518e+09 1.10075527e+09 1.10075535e+09
 1.10075544e+09 1.10075552e+09 1.10075561e+09 1.10075570e+09
 1.10075578e+09 1.10075587e+09 1.10075596e+09 1.10075604e+09
 1.10075613e+09 1.10075622e+09 1.10075630e+09 1.10075639e+09
 1.10075648e+09 1.10075656e+09 1.10075665e+09 1.10075674e+09
 1.10075682e+09 1.10075691e+09 1.10075699e+09 1.10075708e+09
 1.10075717e+09 1.10075725e+09 1.10075734e+09 1.10075743e+09
 1.10075751e+09 1.10075760e+09 1.10075769e+09 1.10075777e+09
 1.10075786e+09 1.10075795e+09 1.10075803e+09 1.10075812e+09
 1.10075821e+09 1.10075829e+09 1.10075838e+09 1.10075847e+09
 1.10075855e+09 1.10075864e+09 1.10075872e+09 1.10075881e+09
 1.10075890e+09 1.10075898e+09 1.10075907e+09 1.10075916e+09
 1.10075924e+09 1.10075933e+09 1.10075942e+09 1.10075950e+09
 1.10075959e+09 1.10075968e+09 1.10075976e+09 1.10075985e+09
 1.10075994e+09 1.10076002e+09 1.10076011e+09 1.10076019e+09
 1.10076028e+09 1.10076037e+09 1.10076045e+09 1.10076054e+09
 1.10076063e+09 1.10076071e+09 1.10076080e+09 1.10076089e+09
 1.10076097e+09 1.10076106e+09 1.10076115e+09 1.10076123e+09
 1.10076132e+09 1.10076141e+09 1.10076149e+09 1.10076158e+09
 1.10076167e+09 1.10076175e+09 1.10076184e+09 1.10076192e+09
 1.10076201e+09 1.10076210e+09 1.10076218e+09 1.10076227e+09
 1.10076236e+09 1.10076244e+09 1.10076253e+09 1.10076262e+09
 1.10076270e+09 1.10076279e+09 1.10076288e+09 1.10076296e+09
 1.10076305e+09 1.10076314e+09 1.10076322e+09 1.10076331e+09
 1.10076339e+09 1.10076348e+09 1.10076357e+09 1.10076365e+09
 1.10076374e+09 1.10076383e+09 1.10076391e+09 1.10076400e+09
 1.10076409e+09 1.10076417e+09 1.10076426e+09 1.10076435e+09
 1.10076443e+09 1.10076452e+09 1.10076461e+09 1.10076469e+09
 1.10076478e+09 1.10076487e+09 1.10076495e+09 1.10076504e+09
 1.10076512e+09 1.10076521e+09 1.10076530e+09 1.10076538e+09
 1.10076547e+09 1.10076556e+09 1.10076564e+09 1.10076573e+09
 1.10076582e+09 1.10076590e+09 1.10076599e+09 1.10076608e+09
 1.10076616e+09 1.10076625e+09 1.10076634e+09 1.10076642e+09
 1.10076651e+09 1.10076659e+09 1.10076668e+09 1.10076677e+09
 1.10076685e+09 1.10076694e+09 1.10076703e+09 1.10076711e+09
 1.10076720e+09 1.10076729e+09 1.10076737e+09 1.10076746e+09
 1.10076755e+09 1.10076763e+09 1.10076772e+09 1.10076781e+09
 1.10076789e+09 1.10076798e+09 1.10076807e+09 1.10076815e+09
 1.10076824e+09 1.10076832e+09 1.10076841e+09 1.10076850e+09
 1.10076858e+09 1.10076867e+09 1.10076876e+09 1.10076884e+09
 1.10076893e+09 1.10076902e+09 1.10076910e+09 1.10076919e+09
 1.10076928e+09 1.10076936e+09 1.10076945e+09 1.10076954e+09
 1.10076962e+09 1.10076971e+09 1.10076979e+09 1.10076988e+09
 1.10076997e+09 1.10077005e+09 1.10077014e+09 1.10077023e+09
 1.10077031e+09 1.10077040e+09 1.10077049e+09 1.10077057e+09
 1.10077066e+09 1.10077075e+09 1.10077083e+09 1.10077092e+09
 1.10077101e+09 1.10077109e+09 1.10077118e+09 1.10077127e+09
 1.10077135e+09 1.10077144e+09 1.10077152e+09 1.10077161e+09
 1.10077170e+09 1.10077178e+09 1.10077187e+09 1.10077196e+09
 1.10077204e+09 1.10077213e+09 1.10077222e+09 1.10077230e+09
 1.10077239e+09 1.10077248e+09 1.10077256e+09 1.10077265e+09
 1.10077274e+09 1.10077282e+09 1.10077291e+09 1.10077299e+09
 1.10077308e+09 1.10077317e+09 1.10077325e+09 1.10077334e+09
 1.10077343e+09 1.10077351e+09 1.10077360e+09 1.10077369e+09
 1.10077377e+09 1.10077386e+09 1.10077395e+09 1.10077403e+09
 1.10077412e+09 1.10077421e+09 1.10077429e+09 1.10077438e+09
 1.10077447e+09 1.10077455e+09 1.10077464e+09 1.10077472e+09
 1.10077481e+09 1.10077490e+09 1.10077498e+09 1.10077507e+09
 1.10077516e+09 1.10077524e+09 1.10077533e+09 1.10077542e+09
 1.10077550e+09 1.10077559e+09 1.10077568e+09 1.10077576e+09
 1.10077585e+09 1.10077594e+09 1.10077602e+09 1.10077611e+09
 1.10077619e+09 1.10077628e+09 1.10077637e+09 1.10077645e+09
 1.10077654e+09 1.10077663e+09 1.10077671e+09 1.10077680e+09
 1.10077689e+09 1.10077697e+09 1.10077706e+09 1.10077715e+09
