name =JUICE_ROI_GAN_6_3_06
flyby = ['2034 SEP 07 06:03:51', '2034 SEP 08 06:03:51']
Observation TW = <SpiceCell dtype = 1, length = 0, size = 3000, card = 10, is_set = 1, adjust = 0, init = 1, base = 94527700103840, data = 94527700103888>
Res(t) = [2.05011442 2.04712922 2.04415091 2.04117951 2.03821503 2.03525746
 2.03230682 2.02936311 2.02642634 2.02349652 2.02057365 2.01765774
 2.0147488  2.01184682 2.00895182 2.00606381 2.00318278 2.00030875
 1.99744171 1.99458168 1.99172865 1.98888264 1.98604365 1.98321168
 1.98038674 1.97756883 1.97475796 1.97195413 1.96915734 1.9663676
 1.96358491 1.96080928 1.9580407  1.95527919 1.95252475 1.94977738
 1.94703708 1.94430385 1.9415777  1.93885864 1.93614666 1.93344176
 1.93074395 1.92805324 1.92536961 1.92269309 1.92002366 1.91736133
 1.91470609 1.91205797 1.90941694 1.90678302 1.90415621 1.90153651
 1.89892391 1.89631842 1.89372005 1.89112879 1.88854463 1.88596759
 1.88339767 1.88083485 1.87827915 1.87573057 1.8731891  1.87065474
 1.86812749 1.86560736 1.86309434 1.86058843 1.85808964 1.85559795
 1.85311337 1.85063591 1.84816555 1.8457023  1.84324615 1.84079711
 1.83835517 1.83592033 1.83349259 1.83107196 1.82865841 1.82625196
 1.82385261 1.82146035 1.81907517 1.81669708 1.81432607 1.81196215
 1.8096053  1.80725553 1.80491284 1.80257721 1.80024865 1.79792716
 1.79561273 1.79330536 1.79100505 1.78871178 1.78642557 1.7841464
 1.78187427 1.77960919 1.77735113 1.77510011 1.77285612 1.77061914
 1.76838919 1.76616625 1.76395032 1.7617414  1.75953948 1.75734456
 1.75515663 1.75297569 1.75080173 1.74863476 1.74647475 1.74432172
 1.74217565 1.74003654 1.73790439 1.73577918 1.73366092 1.7315496
 1.72944521 1.72734774 1.72525721 1.72317358 1.72109687 1.71902706
 1.71696416 1.71490814 1.71285902 1.71081678 1.70878141 1.70675291
 1.70473128 1.7027165  1.70070857 1.69870749 1.69671325 1.69472583
 1.69274525 1.69077148 1.68880452 1.68684437 1.68489102 1.68294445
 1.68100467 1.67907168 1.67714545 1.67522598 1.67331327 1.67140731
 1.66950809 1.66761561 1.66572985 1.66385081 1.66197849 1.66011287
 1.65825395 1.65640171 1.65455616 1.65271729 1.65088508 1.64905953
 1.64724063 1.64542837 1.64362275 1.64182375 1.64003138 1.63824561
 1.63646645 1.63469388 1.6329279  1.6311685  1.62941567 1.6276694
 1.62592968 1.62419651 1.62246987 1.62074976 1.61903617 1.61732909
 1.61562851 1.61393443 1.61224682 1.6105657  1.60889104 1.60722284
 1.60556109 1.60390578 1.6022569  1.60061444 1.59897839 1.59734875
 1.59572551 1.59410865 1.59249817 1.59089405 1.58929629 1.58770489
 1.58611982 1.58454108 1.58296866 1.58140256 1.57984275 1.57828924
 1.57674201 1.57520106 1.57366637 1.57213794 1.57061575 1.56909979
 1.56759006 1.56608655 1.56458924 1.56309813 1.56161321 1.56013447
 1.55866189 1.55719546 1.55573519 1.55428105 1.55283304 1.55139115
 1.54995537 1.54852568 1.54710209 1.54568457 1.54427311 1.54286772
 1.54146837 1.54007506 1.53868778 1.53730651 1.53593125 1.53456199
 1.53319872 1.53184142 1.53049008 1.52914471 1.52780527 1.52647178
 1.52514421 1.52382255 1.52250679 1.52119693 1.51989296 1.51859486
 1.51730261 1.51601623 1.51473568 1.51346096 1.51219207 1.51092898
 1.5096717  1.5084202  1.50717448 1.50593454 1.50470034 1.5034719
 1.50224919 1.50103221 1.49982094 1.49861538 1.49741551 1.49622133
 1.49503281 1.49384996 1.49267276 1.49150121 1.49033528 1.48917497
 1.48802027 1.48687117 1.48572765 1.48458971 1.48345734 1.48233052
 1.48120925 1.48009351 1.47898329 1.47787859 1.47677939 1.47568567
 1.47459744 1.47351468 1.47243737 1.47136551 1.47029909 1.46923809
 1.46818251 1.46713234 1.46608755 1.46504815 1.46401412 1.46298546
 1.46196214 1.46094416 1.45993151 1.45892418 1.45792215 1.45692542
 1.45593398 1.45494781 1.4539669  1.45299125 1.45202084 1.45105566
 1.4500957  1.44914095 1.4481914  1.44724703 1.44630784 1.44537382
 1.44444496 1.44352124 1.44260265 1.44168918 1.44078083 1.43987758
 1.43897942 1.43808633 1.43719832 1.43631537 1.43543746 1.43456459
 1.43369674 1.43283391 1.43197608 1.43112325 1.4302754  1.42943252
 1.4285946  1.42776163 1.4269336  1.4261105  1.42529231 1.42447904
 1.42367066 1.42286717 1.42206855 1.42127479 1.42048589 1.41970184
 1.41892261 1.41814821 1.41737861 1.41661382 1.41585382 1.41509859
 1.41434814 1.41360244 1.41286148 1.41212527 1.41139378 1.410667
 1.40994493 1.40922756 1.40851486 1.40780684 1.40710348 1.40640478
 1.40571071 1.40502127 1.40433646 1.40365625 1.40298065 1.40230963
 1.40164319 1.40098131 1.400324   1.39967123 1.39902299 1.39837928
 1.39774009 1.3971054  1.39647521 1.3958495  1.39522826 1.39461149
 1.39399917 1.39339129 1.39278785 1.39218882 1.39159421 1.391004
 1.39041818 1.38983674 1.38925967 1.38868697 1.38811861 1.38755459
 1.3869949  1.38643953 1.38588847 1.38534171 1.38479924 1.38426104
 1.38372712 1.38319745 1.38267203 1.38215085 1.3816339  1.38112117
 1.38061264 1.38010831 1.37960817 1.37911221 1.37862041 1.37813278
 1.37764929 1.37716994 1.37669472 1.37622361 1.37575662 1.37529372
 1.37483491 1.37438018 1.37392952 1.37348292 1.37304037 1.37260186
 1.37216737 1.37173691 1.37131045 1.370888   1.37046954 1.37005506
 1.36964455 1.369238   1.3688354  1.36843674 1.36804202 1.36765122
 1.36726434 1.36688135 1.36650227 1.36612706 1.36575574 1.36538827
 1.36502467 1.36466491 1.36430899 1.36395689 1.36360862 1.36326415
 1.36292348 1.3625866  1.36225351 1.36192418 1.36159862 1.36127681
 1.36095874 1.36064441 1.3603338  1.36002691 1.35972373 1.35942424
 1.35912844 1.35883632 1.35854787 1.35826308 1.35798194 1.35770444
 1.35743058 1.35716034 1.35689372 1.3566307  1.35637128 1.35611545
 1.3558632  1.35561451 1.35536939 1.35512782 1.3548898  1.35465531
 1.35442434 1.3541969  1.35397296 1.35375252 1.35353557 1.3533221
 1.3531121  1.35290557 1.3527025  1.35250287 1.35230668 1.35211392
 1.35192457 1.35173865 1.35155612 1.35137699 1.35120125 1.35102888
 1.35085989 1.35069425 1.35053197 1.35037303 1.35021742 1.35006515
 1.34991619 1.34977054 1.34962819 1.34948914 1.34935337 1.34922088
 1.34909165 1.34896569 1.34884298 1.34872351 1.34860727 1.34849427
 1.34838448 1.34827791 1.34817453 1.34807435 1.34797736 1.34788354
 1.3477929  1.34770542 1.34762109 1.34753991 1.34746186 1.34738695
 1.34731516 1.34724648 1.34718091 1.34711843 1.34705905 1.34700275
 1.34694952 1.34689937 1.34685227 1.34680822 1.34676721 1.34672924
 1.3466943  1.34666238 1.34663348 1.34660757 1.34658467 1.34656475
 1.34654782 1.34653386 1.34652287 1.34651483 1.34650975 1.34650762
 1.34650842 1.34651215 1.3465188  1.34652836 1.34654084 1.34655621
 1.34657448 1.34659563 1.34661965 1.34664655 1.34667631 1.34670893
 1.34674439 1.3467827  1.34682384 1.34686781 1.34691459 1.34696419
 1.3470166  1.3470718  1.34712979 1.34719057 1.34725413 1.34732045
 1.34738954 1.34746138 1.34753597 1.34761331 1.34769338 1.34777617
 1.34786169 1.34794992 1.34804086 1.3481345  1.34823083 1.34832985
 1.34843155 1.34853593 1.34864297 1.34875267 1.34886502 1.34898002
 1.34909766 1.34921793 1.34934083 1.34946635 1.34959448 1.34972522
 1.34985856 1.34999449 1.35013301 1.35027411 1.35041778 1.35056402
 1.35071282 1.35086418 1.35101808 1.35117453 1.35133351 1.35149502
 1.35165906 1.35182561 1.35199467 1.35216623 1.3523403  1.35251685
 1.35269589 1.35287741 1.3530614  1.35324786 1.35343677 1.35362815
 1.35382197 1.35401823 1.35421693 1.35441806 1.35462162 1.35482759
 1.35503597 1.35524677 1.35545996 1.35567554 1.35589352 1.35611387
 1.35633661 1.35656171 1.35678918 1.35701901 1.35725119 1.35748572
 1.35772259 1.3579618  1.35820334 1.3584472  1.35869338 1.35894187
 1.35919268 1.35944578 1.35970118 1.35995887 1.36021885 1.36048111
 1.36074564 1.36101244 1.3612815  1.36155282 1.3618264  1.36210222
 1.36238028 1.36266058 1.3629431  1.36322786 1.36351483 1.36380402
 1.36409542 1.36438902 1.36468482 1.36498281 1.36528299 1.36558536
 1.3658899  1.36619662 1.3665055  1.36681654 1.36712974 1.3674451
 1.3677626  1.36808224 1.36840402 1.36872793 1.36905397 1.36938213
 1.36971241 1.3700448  1.37037929 1.37071589 1.37105458 1.37139537
 1.37173825 1.3720832  1.37243024 1.37277934 1.37313052 1.37348376
 1.37383905 1.3741964  1.3745558  1.37491724 1.37528073 1.37564624
 1.37601379 1.37638336 1.37675496 1.37712857 1.37750419 1.37788182
 1.37826145 1.37864308 1.37902671 1.37941232 1.37979992 1.38018949
 1.38058104 1.38097457 1.38137006 1.38176751 1.38216692 1.38256829
 1.3829716  1.38337686 1.38378406 1.38419319 1.38460426 1.38501726
 1.38543218 1.38584902 1.38626777 1.38668843 1.38711101 1.38753548
 1.38796185 1.38839012 1.38882028 1.38925232 1.38968624 1.39012205
 1.39055972 1.39099927 1.39144068 1.39188396 1.39232909 1.39277608
 1.39322492 1.3936756  1.39412813 1.39458249 1.39503869 1.39549672
 1.39595657 1.39641825 1.39688175 1.39734707 1.39781419 1.39828312
 1.39875386 1.3992264  1.39970073 1.40017686 1.40065478 1.40113448
 1.40161597 1.40209923 1.40258427 1.40307108 1.40355966 1.40405
 1.4045421  1.40503596 1.40553157 1.40602894 1.40652805 1.4070289
 1.40753149 1.40803582 1.40854188 1.40904968 1.40955919 1.41007044
 1.4105834  1.41109807 1.41161446 1.41213256 1.41265236 1.41317387
 1.41369708 1.41422198 1.41474858 1.41527687 1.41580684 1.4163385
 1.41687184 1.41740685 1.41794355 1.41848191 1.41902194 1.41956363
 1.42010699 1.420652   1.42119868 1.421747   1.42229698 1.4228486
 1.42340186 1.42395677 1.42451331 1.42507149 1.42563131 1.42619275
 1.42675582 1.42732051 1.42788682 1.42845475 1.4290243  1.42959546
 1.43016823 1.4307426  1.43131858 1.43189616 1.43247534 1.43305612
 1.43363849 1.43422244 1.43480799 1.43539513 1.43598384 1.43657414
 1.43716601 1.43775946 1.43835448 1.43895107 1.43954923 1.44014895
 1.44075024 1.44135308 1.44195748 1.44256344 1.44317095 1.44378001
 1.44439062 1.44500277 1.44561647 1.4462317  1.44684848 1.44746679
 1.44808663 1.44870801 1.44933091 1.44995534 1.45058129 1.45120877
 1.45183777 1.45246828 1.45310031 1.45373386 1.45436891 1.45500547
 1.45564354 1.45628312 1.4569242  1.45756677 1.45821085 1.45885642
 1.45950349 1.46015205 1.4608021  1.46145364 1.46210666 1.46276117
 1.46341716 1.46407463 1.46473358 1.465394   1.4660559  1.46671928
 1.46738412 1.46805043 1.46871821 1.46938745 1.47005816 1.47073033
 1.47140396 1.47207905 1.47275559 1.47343359 1.47411304 1.47479395
 1.4754763  1.4761601  1.47684534 1.47753203 1.47822017 1.47890974
 1.47960075 1.4802932  1.48098709 1.48168241 1.48237917 1.48307735
 1.48377697 1.48447802 1.48518049 1.48588439 1.48658971 1.48729645
 1.48800462 1.4887142  1.48942521 1.49013763 1.49085147 1.49156672
 1.49228338 1.49300146 1.49372094 1.49444183 1.49516414 1.49588784
 1.49661296 1.49733947 1.49806739 1.49879671 1.49952743 1.50025955
 1.50099306 1.50172798 1.50246428 1.50320199 1.50394108 1.50468157
 1.50542344 1.50616671 1.50691137 1.50765741 1.50840484 1.50915365
 1.50990385 1.51065544 1.5114084  1.51216275 1.51291847 1.51367558
 1.51443406 1.51519393 1.51595517 1.51671778 1.51748177 1.51824713
 1.51901387 1.51978198 1.52055146 1.52132231 1.52209453 1.52286812
 1.52364308 1.52441941 1.5251971  1.52597616 1.52675659 1.52753838
 1.52832153 1.52910605 1.52989193 1.53067917 1.53146777 1.53225774
 1.53304906 1.53384174 1.53463579 1.53543119 1.53622795 1.53702606
 1.53782554 1.53862636 1.53942855 1.54023209 1.54103699 1.54184324
 1.54265084 1.5434598  1.54427011 1.54508177 1.54589478 1.54670915
 1.54752487 1.54834194 1.54916036 1.54998013 1.55080126 1.55162373
 1.55244755 1.55327272 1.55409924 1.55492711 1.55575633 1.5565869
 1.55741881 1.55825208 1.55908669 1.55992265]
t = [1.09451595e+09 1.09451601e+09 1.09451608e+09 1.09451614e+09
 1.09451621e+09 1.09451627e+09 1.09451634e+09 1.09451640e+09
 1.09451647e+09 1.09451653e+09 1.09451659e+09 1.09451666e+09
 1.09451672e+09 1.09451679e+09 1.09451685e+09 1.09451692e+09
 1.09451698e+09 1.09451705e+09 1.09451711e+09 1.09451717e+09
 1.09451724e+09 1.09451730e+09 1.09451737e+09 1.09451743e+09
 1.09451750e+09 1.09451756e+09 1.09451762e+09 1.09451769e+09
 1.09451775e+09 1.09451782e+09 1.09451788e+09 1.09451795e+09
 1.09451801e+09 1.09451808e+09 1.09451814e+09 1.09451820e+09
 1.09451827e+09 1.09451833e+09 1.09451840e+09 1.09451846e+09
 1.09451853e+09 1.09451859e+09 1.09451866e+09 1.09451872e+09
 1.09451878e+09 1.09451885e+09 1.09451891e+09 1.09451898e+09
 1.09451904e+09 1.09451911e+09 1.09451917e+09 1.09451924e+09
 1.09451930e+09 1.09451936e+09 1.09451943e+09 1.09451949e+09
 1.09451956e+09 1.09451962e+09 1.09451969e+09 1.09451975e+09
 1.09451982e+09 1.09451988e+09 1.09451994e+09 1.09452001e+09
 1.09452007e+09 1.09452014e+09 1.09452020e+09 1.09452027e+09
 1.09452033e+09 1.09452039e+09 1.09452046e+09 1.09452052e+09
 1.09452059e+09 1.09452065e+09 1.09452072e+09 1.09452078e+09
 1.09452085e+09 1.09452091e+09 1.09452097e+09 1.09452104e+09
 1.09452110e+09 1.09452117e+09 1.09452123e+09 1.09452130e+09
 1.09452136e+09 1.09452143e+09 1.09452149e+09 1.09452155e+09
 1.09452162e+09 1.09452168e+09 1.09452175e+09 1.09452181e+09
 1.09452188e+09 1.09452194e+09 1.09452201e+09 1.09452207e+09
 1.09452213e+09 1.09452220e+09 1.09452226e+09 1.09452233e+09
 1.09452239e+09 1.09452246e+09 1.09452252e+09 1.09452258e+09
 1.09452265e+09 1.09452271e+09 1.09452278e+09 1.09452284e+09
 1.09452291e+09 1.09452297e+09 1.09452304e+09 1.09452310e+09
 1.09452316e+09 1.09452323e+09 1.09452329e+09 1.09452336e+09
 1.09452342e+09 1.09452349e+09 1.09452355e+09 1.09452362e+09
 1.09452368e+09 1.09452374e+09 1.09452381e+09 1.09452387e+09
 1.09452394e+09 1.09452400e+09 1.09452407e+09 1.09452413e+09
 1.09452420e+09 1.09452426e+09 1.09452432e+09 1.09452439e+09
 1.09452445e+09 1.09452452e+09 1.09452458e+09 1.09452465e+09
 1.09452471e+09 1.09452477e+09 1.09452484e+09 1.09452490e+09
 1.09452497e+09 1.09452503e+09 1.09452510e+09 1.09452516e+09
 1.09452523e+09 1.09452529e+09 1.09452535e+09 1.09452542e+09
 1.09452548e+09 1.09452555e+09 1.09452561e+09 1.09452568e+09
 1.09452574e+09 1.09452581e+09 1.09452587e+09 1.09452593e+09
 1.09452600e+09 1.09452606e+09 1.09452613e+09 1.09452619e+09
 1.09452626e+09 1.09452632e+09 1.09452639e+09 1.09452645e+09
 1.09452651e+09 1.09452658e+09 1.09452664e+09 1.09452671e+09
 1.09452677e+09 1.09452684e+09 1.09452690e+09 1.09452697e+09
 1.09452703e+09 1.09452709e+09 1.09452716e+09 1.09452722e+09
 1.09452729e+09 1.09452735e+09 1.09452742e+09 1.09452748e+09
 1.09452754e+09 1.09452761e+09 1.09452767e+09 1.09452774e+09
 1.09452780e+09 1.09452787e+09 1.09452793e+09 1.09452800e+09
 1.09452806e+09 1.09452812e+09 1.09452819e+09 1.09452825e+09
 1.09452832e+09 1.09452838e+09 1.09452845e+09 1.09452851e+09
 1.09452858e+09 1.09452864e+09 1.09452870e+09 1.09452877e+09
 1.09452883e+09 1.09452890e+09 1.09452896e+09 1.09452903e+09
 1.09452909e+09 1.09452916e+09 1.09452922e+09 1.09452928e+09
 1.09452935e+09 1.09452941e+09 1.09452948e+09 1.09452954e+09
 1.09452961e+09 1.09452967e+09 1.09452973e+09 1.09452980e+09
 1.09452986e+09 1.09452993e+09 1.09452999e+09 1.09453006e+09
 1.09453012e+09 1.09453019e+09 1.09453025e+09 1.09453031e+09
 1.09453038e+09 1.09453044e+09 1.09453051e+09 1.09453057e+09
 1.09453064e+09 1.09453070e+09 1.09453077e+09 1.09453083e+09
 1.09453089e+09 1.09453096e+09 1.09453102e+09 1.09453109e+09
 1.09453115e+09 1.09453122e+09 1.09453128e+09 1.09453135e+09
 1.09453141e+09 1.09453147e+09 1.09453154e+09 1.09453160e+09
 1.09453167e+09 1.09453173e+09 1.09453180e+09 1.09453186e+09
 1.09453192e+09 1.09453199e+09 1.09453205e+09 1.09453212e+09
 1.09453218e+09 1.09453225e+09 1.09453231e+09 1.09453238e+09
 1.09453244e+09 1.09453250e+09 1.09453257e+09 1.09453263e+09
 1.09453270e+09 1.09453276e+09 1.09453283e+09 1.09453289e+09
 1.09453296e+09 1.09453302e+09 1.09453308e+09 1.09453315e+09
 1.09453321e+09 1.09453328e+09 1.09453334e+09 1.09453341e+09
 1.09453347e+09 1.09453354e+09 1.09453360e+09 1.09453366e+09
 1.09453373e+09 1.09453379e+09 1.09453386e+09 1.09453392e+09
 1.09453399e+09 1.09453405e+09 1.09453412e+09 1.09453418e+09
 1.09453424e+09 1.09453431e+09 1.09453437e+09 1.09453444e+09
 1.09453450e+09 1.09453457e+09 1.09453463e+09 1.09453469e+09
 1.09453476e+09 1.09453482e+09 1.09453489e+09 1.09453495e+09
 1.09453502e+09 1.09453508e+09 1.09453515e+09 1.09453521e+09
 1.09453527e+09 1.09453534e+09 1.09453540e+09 1.09453547e+09
 1.09453553e+09 1.09453560e+09 1.09453566e+09 1.09453573e+09
 1.09453579e+09 1.09453585e+09 1.09453592e+09 1.09453598e+09
 1.09453605e+09 1.09453611e+09 1.09453618e+09 1.09453624e+09
 1.09453631e+09 1.09453637e+09 1.09453643e+09 1.09453650e+09
 1.09453656e+09 1.09453663e+09 1.09453669e+09 1.09453676e+09
 1.09453682e+09 1.09453688e+09 1.09453695e+09 1.09453701e+09
 1.09453708e+09 1.09453714e+09 1.09453721e+09 1.09453727e+09
 1.09453734e+09 1.09453740e+09 1.09453746e+09 1.09453753e+09
 1.09453759e+09 1.09453766e+09 1.09453772e+09 1.09453779e+09
 1.09453785e+09 1.09453792e+09 1.09453798e+09 1.09453804e+09
 1.09453811e+09 1.09453817e+09 1.09453824e+09 1.09453830e+09
 1.09453837e+09 1.09453843e+09 1.09453850e+09 1.09453856e+09
 1.09453862e+09 1.09453869e+09 1.09453875e+09 1.09453882e+09
 1.09453888e+09 1.09453895e+09 1.09453901e+09 1.09453907e+09
 1.09453914e+09 1.09453920e+09 1.09453927e+09 1.09453933e+09
 1.09453940e+09 1.09453946e+09 1.09453953e+09 1.09453959e+09
 1.09453965e+09 1.09453972e+09 1.09453978e+09 1.09453985e+09
 1.09453991e+09 1.09453998e+09 1.09454004e+09 1.09454011e+09
 1.09454017e+09 1.09454023e+09 1.09454030e+09 1.09454036e+09
 1.09454043e+09 1.09454049e+09 1.09454056e+09 1.09454062e+09
 1.09454069e+09 1.09454075e+09 1.09454081e+09 1.09454088e+09
 1.09454094e+09 1.09454101e+09 1.09454107e+09 1.09454114e+09
 1.09454120e+09 1.09454127e+09 1.09454133e+09 1.09454139e+09
 1.09454146e+09 1.09454152e+09 1.09454159e+09 1.09454165e+09
 1.09454172e+09 1.09454178e+09 1.09454184e+09 1.09454191e+09
 1.09454197e+09 1.09454204e+09 1.09454210e+09 1.09454217e+09
 1.09454223e+09 1.09454230e+09 1.09454236e+09 1.09454242e+09
 1.09454249e+09 1.09454255e+09 1.09454262e+09 1.09454268e+09
 1.09454275e+09 1.09454281e+09 1.09454288e+09 1.09454294e+09
 1.09454300e+09 1.09454307e+09 1.09454313e+09 1.09454320e+09
 1.09454326e+09 1.09454333e+09 1.09454339e+09 1.09454346e+09
 1.09454352e+09 1.09454358e+09 1.09454365e+09 1.09454371e+09
 1.09454378e+09 1.09454384e+09 1.09454391e+09 1.09454397e+09
 1.09454403e+09 1.09454410e+09 1.09454416e+09 1.09454423e+09
 1.09454429e+09 1.09454436e+09 1.09454442e+09 1.09454449e+09
 1.09454455e+09 1.09454461e+09 1.09454468e+09 1.09454474e+09
 1.09454481e+09 1.09454487e+09 1.09454494e+09 1.09454500e+09
 1.09454507e+09 1.09454513e+09 1.09454519e+09 1.09454526e+09
 1.09454532e+09 1.09454539e+09 1.09454545e+09 1.09454552e+09
 1.09454558e+09 1.09454565e+09 1.09454571e+09 1.09454577e+09
 1.09454584e+09 1.09454590e+09 1.09454597e+09 1.09454603e+09
 1.09454610e+09 1.09454616e+09 1.09454622e+09 1.09454629e+09
 1.09454635e+09 1.09454642e+09 1.09454648e+09 1.09454655e+09
 1.09454661e+09 1.09454668e+09 1.09454674e+09 1.09454680e+09
 1.09454687e+09 1.09454693e+09 1.09454700e+09 1.09454706e+09
 1.09454713e+09 1.09454719e+09 1.09454726e+09 1.09454732e+09
 1.09454738e+09 1.09454745e+09 1.09454751e+09 1.09454758e+09
 1.09454764e+09 1.09454771e+09 1.09454777e+09 1.09454784e+09
 1.09454790e+09 1.09454796e+09 1.09454803e+09 1.09454809e+09
 1.09454816e+09 1.09454822e+09 1.09454829e+09 1.09454835e+09
 1.09454842e+09 1.09454848e+09 1.09454854e+09 1.09454861e+09
 1.09454867e+09 1.09454874e+09 1.09454880e+09 1.09454887e+09
 1.09454893e+09 1.09454899e+09 1.09454906e+09 1.09454912e+09
 1.09454919e+09 1.09454925e+09 1.09454932e+09 1.09454938e+09
 1.09454945e+09 1.09454951e+09 1.09454957e+09 1.09454964e+09
 1.09454970e+09 1.09454977e+09 1.09454983e+09 1.09454990e+09
 1.09454996e+09 1.09455003e+09 1.09455009e+09 1.09455015e+09
 1.09455022e+09 1.09455028e+09 1.09455035e+09 1.09455041e+09
 1.09455048e+09 1.09455054e+09 1.09455061e+09 1.09455067e+09
 1.09455073e+09 1.09455080e+09 1.09455086e+09 1.09455093e+09
 1.09455099e+09 1.09455106e+09 1.09455112e+09 1.09455118e+09
 1.09455125e+09 1.09455131e+09 1.09455138e+09 1.09455144e+09
 1.09455151e+09 1.09455157e+09 1.09455164e+09 1.09455170e+09
 1.09455176e+09 1.09455183e+09 1.09455189e+09 1.09455196e+09
