name =JUICE_ROI_GAN_2_0_08
flyby = ['2033 NOV 26 18:22:11', '2033 NOV 27 18:22:11']
Observation TW = <SpiceCell dtype = 1, length = 0, size = 3200, card = 12, is_set = 1, adjust = 0, init = 1, base = 94628595236592, data = 94628595236640>
Res(t) = [0.21832253 0.21662053 0.2152577  0.21419047 0.21338259 0.21280366
 0.21242795 0.21223354 0.21220163 0.21231597 0.21256248 0.21292886
 0.21340432 0.21397934 0.21464553 0.21539541 0.2162223  0.21712025
 0.2180839  0.21910842 0.22018946 0.22132307 0.22250566 0.22373398
 0.22500503 0.2263161  0.22766469 0.22904851 0.23046544 0.23191354
 0.23339101 0.2348962  0.23642756 0.23798366 0.23956318 0.24116488
 0.24278761 0.2444303  0.24609194 0.2477716  0.24946839 0.2511815
 0.25291015 0.25465362 0.25641121 0.2581823  0.25996627 0.26176256
 0.26357063 0.26538996 0.26722008 0.26906054 0.27091089 0.27277075
 0.27463971 0.27651741 0.2784035  0.28029766 0.28219957 0.28410892
 0.28602544 0.28794884 0.28987889 0.29181532 0.2937579  0.29570642
 0.29766064 0.29962038 0.30158543 0.30355561 0.30553073 0.30751064
 0.30949515 0.31148412 0.31347739 0.31547483 0.31747628 0.31948163
 0.32149073 0.32350348 0.32551974 0.32753941 0.32956238 0.33158855
 0.33361781 0.33565006 0.33768522 0.33972319 0.34176389 0.34380723
 0.34585313 0.34790152 0.34995232 0.35200546 0.35406087 0.35611848
 0.35817823 0.36024006 0.3623039  0.36436969 0.36643739 0.36850693
 0.37057826 0.37265133 0.3747261  0.37680251 0.37888052 0.38096008
 0.38304116 0.3851237  0.38720767 0.38929303 0.39137974 0.39346776
 0.39555706 0.3976476  0.39973936 0.40183229 0.40392636 0.40602155
 0.40811782 0.41021515 0.41231351 0.41441287 0.4165132  0.41861448
 0.42071669 0.4228198  0.42492378 0.42702862 0.42913429 0.43124077
 0.43334803 0.43545607 0.43756486 0.43967437 0.4417846  0.44389552
 0.44600712 0.44811937 0.45023227 0.45234579 0.45445992 0.45657464
 0.45868995 0.46080582 0.46292224 0.46503919 0.46715667 0.46927466
 0.47139315 0.47351212 0.47563156 0.47775147 0.47987183 0.48199262
 0.48411384 0.48623548 0.48835753 0.49047997 0.4926028  0.49472601
 0.49684959 0.49897353 0.50109781 0.50322244 0.50534741 0.5074727
 0.5095983  0.51172422 0.51385044 0.51597696 0.51810376 0.52023084
 0.5223582  0.52448583 0.52661372 0.52874186 0.53087025 0.53299888
 0.53512776 0.53725686 0.53938619 0.54151574 0.5436455  0.54577548
 0.54790566 0.55003604 0.55216662 0.55429739 0.55642834 0.55855948
 0.5606908  0.56282229 0.56495395 0.56708577 0.56921776 0.57134991
 0.57348221 0.57561467 0.57774727 0.57988001 0.5820129  0.58414593
 0.58627909 0.58841238 0.59054581 0.59267935 0.59481303 0.59694682
 0.59908073 0.60121476 0.60334891 0.60548316 0.60761752 0.60975199
 0.61188656 0.61402124 0.61615601 0.61829089 0.62042586 0.62256092
 0.62469608 0.62683132 0.62896666 0.63110209 0.6332376  0.63537319
 0.63750887 0.63964462 0.64178046 0.64391638 0.64605237 0.64818844
 0.65032459 0.65246081 0.6545971  0.65673346 0.65886989 0.6610064
 0.66314297 0.6652796  0.66741631 0.66955308 0.67168992 0.67382681
 0.67596378 0.6781008  0.68023789 0.68237504 0.68451225 0.68664952
 0.68878685 0.69092423 0.69306168 0.69519919 0.69733675 0.69947437
 0.70161205 0.70374978 0.70588757 0.70802541 0.71016332 0.71230127
 0.71443928 0.71657735 0.71871547 0.72085365 0.72299188 0.72513017
 0.72726851 0.7294069  0.73154535 0.73368386 0.73582241 0.73796103
 0.74009969 0.74223841 0.74437719 0.74651602 0.74865491 0.75079385
 0.75293284 0.75507189 0.757211   0.75935016 0.76148938 0.76362866
 0.76576799 0.76790738 0.77004682 0.77218633 0.77432589 0.77646551
 0.77860519 0.78074492 0.78288472 0.78502457 0.78716449 0.78930446
 0.7914445  0.7935846  0.79572476 0.79786498 0.80000527 0.80214562
 0.80428603 0.80642651 0.80856705 0.81070766 0.81284833 0.81498907
 0.81712988 0.81927076 0.8214117  0.82355272 0.8256938  0.82783495
 0.82997618 0.83211748 0.83425885 0.83640029 0.8385418  0.84068339
 0.84282506 0.8449668  0.84710862 0.84925052 0.85139249 0.85353454
 0.85567667 0.85781889 0.85996118 0.86210356 0.86424601 0.86638856
 0.86853118 0.8706739  0.87281669 0.87495958 0.87710255 0.87924561
 0.88138876 0.883532   0.88567534 0.88781876 0.88996228 0.89210589
 0.89424959 0.89639339 0.89853729 0.90068129 0.90282538 0.90496957
 0.90711386 0.90925826 0.91140275 0.91354735 0.91569206 0.91783686
 0.91998178 0.9221268  0.92427193 0.92641716 0.92856251 0.93070797
 0.93285354 0.93499922 0.93714502 0.93929093 0.94143696 0.9435831
 0.94572936 0.94787574 0.95002224 0.95216886 0.95431561 0.95646247
 0.95860947 0.96075658 0.96290382 0.96505119 0.96719869 0.96934632
 0.97149408 0.97364197 0.97578999 0.97793814 0.98008644 0.98223486
 0.98438343 0.98653213 0.98868097 0.99082995 0.99297908 0.99512834
 0.99727775 0.99942731 1.00157701 1.00372685 1.00587685 1.00802699
 1.01017729 1.01232774 1.01447834 1.01662909 1.01878    1.02093107
 1.02308229 1.02523367 1.02738521 1.02953692 1.03168878 1.03384081
 1.035993   1.03814536 1.04029788 1.04245057 1.04460344 1.04675647
 1.04890967 1.05106305 1.0532166  1.05537032 1.05752422 1.0596783
 1.06183256 1.063987   1.06614162 1.06829642 1.07045141 1.07260657
 1.07476193 1.07691747 1.07907321 1.08122913 1.08338524 1.08554154
 1.08769804 1.08985473 1.09201162 1.09416871 1.09632599 1.09848347
 1.10064116 1.10279904 1.10495713 1.10711542 1.10927392 1.11143263
 1.11359154 1.11575067 1.11791    1.12006955 1.12222931 1.12438929
 1.12654948 1.12870989 1.13087051 1.13303136 1.13519243 1.13735372
 1.13951523 1.14167697 1.14383893 1.14600112 1.14816354 1.15032619
 1.15248907 1.15465218 1.15681553 1.15897911 1.16114293 1.16330699
 1.16547128 1.16763582 1.16980059 1.17196561 1.17413087 1.17629638
 1.17846214 1.18062814 1.18279439 1.1849609  1.18712765 1.18929466
 1.19146192 1.19362944 1.19579722 1.19796525 1.20013355 1.2023021
 1.20447092 1.20664    1.20880935 1.21097896 1.21314884 1.21531899
 1.21748941 1.2196601  1.22183107 1.22400231 1.22617382 1.22834561
 1.23051768 1.23269003 1.23486266 1.23703557 1.23920877 1.24138225
 1.24355602 1.24573007 1.24790442 1.25007905 1.25225398 1.2544292
 1.25660471 1.25878052 1.26095662 1.26313303 1.26530973 1.26748674
 1.26966404 1.27184165 1.27401957 1.27619779 1.27837632 1.28055516
 1.28273431 1.28491378 1.28709355 1.28927364 1.29145405 1.29363477
 1.29581581 1.29799717 1.30017885 1.30236086 1.30454319 1.30672584
 1.30890882 1.31109213 1.31327577 1.31545974 1.31764405 1.31982868
 1.32201365 1.32419896 1.3263846  1.32857059 1.33075691 1.33294358
 1.33513059 1.33731794 1.33950564 1.34169369 1.34388208 1.34607083
 1.34825993 1.35044938 1.35263918 1.35482934 1.35701986 1.35921073
 1.36140197 1.36359356 1.36578552 1.36797784 1.37017053 1.37236358
 1.374557   1.37675079 1.37894495 1.38113949 1.38333439 1.38552968
 1.38772533 1.38992137 1.39211779 1.39431458 1.39651176 1.39870932
 1.40090726 1.40310559 1.40530431 1.40750342 1.40970291 1.4119028
 1.41410308 1.41630376 1.41850483 1.4207063  1.42290817 1.42511043
 1.4273131  1.42951617 1.43171965 1.43392353 1.43612781 1.43833251
 1.44053762 1.44274313 1.44494906 1.4471554  1.44936216 1.45156933
 1.45377693 1.45598494 1.45819337 1.46040223 1.46261151 1.46482121
 1.46703134 1.4692419  1.47145288 1.4736643  1.47587615 1.47808844
 1.48030115 1.48251431 1.4847279  1.48694193 1.48915641 1.49137132
 1.49358668 1.49580248 1.49801873 1.50023542 1.50245257 1.50467016
 1.50688821 1.50910671 1.51132566 1.51354508 1.51576494 1.51798527
 1.52020606 1.52242731 1.52464902 1.5268712  1.52909384 1.53131695
 1.53354053 1.53576458 1.5379891  1.54021409 1.54243956 1.5446655
 1.54689192 1.54911882 1.5513462  1.55357406 1.55580241 1.55803123
 1.56026055 1.56249035 1.56472064 1.56695142 1.56918269 1.57141445
 1.57364671 1.57587947 1.57811272 1.58034647 1.58258072 1.58481547
 1.58705072 1.58928648 1.59152274 1.59375951 1.59599679 1.59823458
 1.60047288 1.6027117  1.60495102 1.60719087 1.60943123 1.6116721
 1.6139135  1.61615542 1.61839787 1.62064083 1.62288432 1.62512834
 1.62737289 1.62961797 1.63186358 1.63410972 1.6363564  1.63860361
 1.64085136 1.64309964 1.64534847 1.64759784 1.64984775 1.6520982
 1.6543492  1.65660075 1.65885285 1.66110549 1.66335869 1.66561244
 1.66786675 1.67012161 1.67237702 1.674633   1.67688953 1.67914663
 1.68140429 1.68366251 1.6859213  1.68818066 1.69044059 1.69270108
 1.69496215 1.69722379 1.699486   1.70174879 1.70401216 1.7062761
 1.70854063 1.71080573 1.71307142 1.71533769 1.71760455 1.719872
 1.72214004 1.72440866 1.72667788 1.72894769 1.73121809 1.73348909
 1.73576069 1.73803289 1.74030568 1.74257908 1.74485308 1.74712768
 1.7494029  1.75167871 1.75395514 1.75623218 1.75850983 1.76078809
 1.76306697 1.76534646 1.76762657 1.7699073  1.77218865 1.77447062
 1.77675321 1.77903643 1.78132028 1.78360475 1.78588985 1.78817558
 1.79046194 1.79274894 1.79503657 1.79732484 1.79961375 1.80190329
 1.80419348 1.8064843  1.80877577 1.81106789 1.81336065 1.81565406
 1.81794812 1.82024283 1.82253819 1.8248342  1.82713087 1.8294282
 1.83172618 1.83402482 1.83632413 1.83862409 1.84092472 1.84322602
 1.84552798 1.84783061 1.8501339  1.85243787 1.85474251 1.85704783
 1.85935382 1.86166049 1.86396783 1.86627586 1.86858456 1.87089395
 1.87320402 1.87551478 1.87782622 1.88013836 1.88245118 1.88476469
 1.8870789  1.8893938  1.89170939 1.89402569 1.89634268 1.89866037
 1.90097876 1.90329785 1.90561765 1.90793815 1.91025937 1.91258129
 1.91490392 1.91722726 1.91955131 1.92187608 1.92420156 1.92652777
 1.92885469 1.93118233 1.93351069 1.93583977 1.93816958 1.94050012
 1.94283138 1.94516337 1.94749609 1.94982955 1.95216373 1.95449865
 1.95683431 1.95917071 1.96150784 1.96384572 1.96618433 1.96852369
 1.9708638  1.97320465 1.97554625 1.9778886  1.98023169 1.98257554
 1.98492015 1.98726551 1.98961162 1.9919585  1.99430613 1.99665452
 1.99900368 2.0013536  2.00370428 2.00605574 2.00840796 2.01076095
 2.01311471 2.01546924 2.01782455 2.02018063 2.02253749 2.02489512
 2.02725354 2.02961274 2.03197272 2.03433348 2.03669503 2.03905737
 2.0414205  2.04378441 2.04614912 2.04851462 2.05088092 2.05324801
 2.05561589 2.05798458 2.06035407 2.06272435 2.06509544 2.06746734
 2.06984004 2.07221355 2.07458787 2.07696299 2.07933893 2.08171569
 2.08409325 2.08647164 2.08885084 2.09123086 2.0936117  2.09599336
 2.09837585 2.10075916 2.1031433  2.10552826 2.10791406 2.11030069
 2.11268814 2.11507643 2.11746556 2.11985552 2.12224633 2.12463797
 2.12703045 2.12942377 2.13181794 2.13421295 2.13660881 2.13900552
 2.14140308 2.14380149 2.14620075 2.14860087 2.15100184 2.15340367
 2.15580635 2.1582099  2.16061431 2.16301958 2.16542571 2.16783272
 2.17024058 2.17264932 2.17505893 2.17746941 2.17988076 2.18229299
 2.18470609 2.18712007 2.18953493 2.19195067 2.19436729 2.19678479
 2.19920318 2.20162246 2.20404262 2.20646367 2.20888562 2.21130845
 2.21373218 2.2161568  2.21858232 2.22100874 2.22343606 2.22586428
 2.2282934  2.23072342 2.23315435 2.23558619 2.23801893 2.24045259
 2.24288715 2.24532263 2.24775902 2.25019633 2.25263455 2.25507369
 2.25751376 2.25995474 2.26239665 2.26483948 2.26728323 2.26972792
 2.27217353 2.27462007 2.27706754 2.27951595 2.28196529 2.28441557
 2.28686678 2.28931894 2.29177203 2.29422607 2.29668104 2.29913697
 2.30159384 2.30405166 2.30651042 2.30897014 2.31143081 2.31389243
 2.31635501 2.31881854 2.32128304 2.32374849 2.3262149  2.32868227
 2.33115061 2.33361992 2.33609019 2.33856142 2.34103363 2.34350681
 2.34598096 2.34845609 2.35093219 2.35340927 2.35588732 2.35836636
 2.36084638 2.36332738 2.36580936 2.36829233]
t = [1.06995958e+09 1.06995963e+09 1.06995967e+09 1.06995971e+09
 1.06995975e+09 1.06995979e+09 1.06995983e+09 1.06995987e+09
 1.06995991e+09 1.06995995e+09 1.06996000e+09 1.06996004e+09
 1.06996008e+09 1.06996012e+09 1.06996016e+09 1.06996020e+09
 1.06996024e+09 1.06996028e+09 1.06996032e+09 1.06996036e+09
 1.06996041e+09 1.06996045e+09 1.06996049e+09 1.06996053e+09
 1.06996057e+09 1.06996061e+09 1.06996065e+09 1.06996069e+09
 1.06996073e+09 1.06996078e+09 1.06996082e+09 1.06996086e+09
 1.06996090e+09 1.06996094e+09 1.06996098e+09 1.06996102e+09
 1.06996106e+09 1.06996110e+09 1.06996114e+09 1.06996119e+09
 1.06996123e+09 1.06996127e+09 1.06996131e+09 1.06996135e+09
 1.06996139e+09 1.06996143e+09 1.06996147e+09 1.06996151e+09
 1.06996156e+09 1.06996160e+09 1.06996164e+09 1.06996168e+09
 1.06996172e+09 1.06996176e+09 1.06996180e+09 1.06996184e+09
 1.06996188e+09 1.06996192e+09 1.06996197e+09 1.06996201e+09
 1.06996205e+09 1.06996209e+09 1.06996213e+09 1.06996217e+09
 1.06996221e+09 1.06996225e+09 1.06996229e+09 1.06996234e+09
 1.06996238e+09 1.06996242e+09 1.06996246e+09 1.06996250e+09
 1.06996254e+09 1.06996258e+09 1.06996262e+09 1.06996266e+09
 1.06996270e+09 1.06996275e+09 1.06996279e+09 1.06996283e+09
 1.06996287e+09 1.06996291e+09 1.06996295e+09 1.06996299e+09
 1.06996303e+09 1.06996307e+09 1.06996312e+09 1.06996316e+09
 1.06996320e+09 1.06996324e+09 1.06996328e+09 1.06996332e+09
 1.06996336e+09 1.06996340e+09 1.06996344e+09 1.06996348e+09
 1.06996353e+09 1.06996357e+09 1.06996361e+09 1.06996365e+09
 1.06996369e+09 1.06996373e+09 1.06996377e+09 1.06996381e+09
 1.06996385e+09 1.06996390e+09 1.06996394e+09 1.06996398e+09
 1.06996402e+09 1.06996406e+09 1.06996410e+09 1.06996414e+09
 1.06996418e+09 1.06996422e+09 1.06996427e+09 1.06996431e+09
 1.06996435e+09 1.06996439e+09 1.06996443e+09 1.06996447e+09
 1.06996451e+09 1.06996455e+09 1.06996459e+09 1.06996463e+09
 1.06996468e+09 1.06996472e+09 1.06996476e+09 1.06996480e+09
 1.06996484e+09 1.06996488e+09 1.06996492e+09 1.06996496e+09
 1.06996500e+09 1.06996505e+09 1.06996509e+09 1.06996513e+09
 1.06996517e+09 1.06996521e+09 1.06996525e+09 1.06996529e+09
 1.06996533e+09 1.06996537e+09 1.06996541e+09 1.06996546e+09
 1.06996550e+09 1.06996554e+09 1.06996558e+09 1.06996562e+09
 1.06996566e+09 1.06996570e+09 1.06996574e+09 1.06996578e+09
 1.06996583e+09 1.06996587e+09 1.06996591e+09 1.06996595e+09
 1.06996599e+09 1.06996603e+09 1.06996607e+09 1.06996611e+09
 1.06996615e+09 1.06996619e+09 1.06996624e+09 1.06996628e+09
 1.06996632e+09 1.06996636e+09 1.06996640e+09 1.06996644e+09
 1.06996648e+09 1.06996652e+09 1.06996656e+09 1.06996661e+09
 1.06996665e+09 1.06996669e+09 1.06996673e+09 1.06996677e+09
 1.06996681e+09 1.06996685e+09 1.06996689e+09 1.06996693e+09
 1.06996697e+09 1.06996702e+09 1.06996706e+09 1.06996710e+09
 1.06996714e+09 1.06996718e+09 1.06996722e+09 1.06996726e+09
 1.06996730e+09 1.06996734e+09 1.06996739e+09 1.06996743e+09
 1.06996747e+09 1.06996751e+09 1.06996755e+09 1.06996759e+09
 1.06996763e+09 1.06996767e+09 1.06996771e+09 1.06996775e+09
 1.06996780e+09 1.06996784e+09 1.06996788e+09 1.06996792e+09
 1.06996796e+09 1.06996800e+09 1.06996804e+09 1.06996808e+09
 1.06996812e+09 1.06996817e+09 1.06996821e+09 1.06996825e+09
 1.06996829e+09 1.06996833e+09 1.06996837e+09 1.06996841e+09
 1.06996845e+09 1.06996849e+09 1.06996853e+09 1.06996858e+09
 1.06996862e+09 1.06996866e+09 1.06996870e+09 1.06996874e+09
 1.06996878e+09 1.06996882e+09 1.06996886e+09 1.06996890e+09
 1.06996895e+09 1.06996899e+09 1.06996903e+09 1.06996907e+09
 1.06996911e+09 1.06996915e+09 1.06996919e+09 1.06996923e+09
 1.06996927e+09 1.06996931e+09 1.06996936e+09 1.06996940e+09
 1.06996944e+09 1.06996948e+09 1.06996952e+09 1.06996956e+09
 1.06996960e+09 1.06996964e+09 1.06996968e+09 1.06996973e+09
 1.06996977e+09 1.06996981e+09 1.06996985e+09 1.06996989e+09
 1.06996993e+09 1.06996997e+09 1.06997001e+09 1.06997005e+09
 1.06997010e+09 1.06997014e+09 1.06997018e+09 1.06997022e+09
 1.06997026e+09 1.06997030e+09 1.06997034e+09 1.06997038e+09
 1.06997042e+09 1.06997046e+09 1.06997051e+09 1.06997055e+09
 1.06997059e+09 1.06997063e+09 1.06997067e+09 1.06997071e+09
 1.06997075e+09 1.06997079e+09 1.06997083e+09 1.06997088e+09
 1.06997092e+09 1.06997096e+09 1.06997100e+09 1.06997104e+09
 1.06997108e+09 1.06997112e+09 1.06997116e+09 1.06997120e+09
 1.06997124e+09 1.06997129e+09 1.06997133e+09 1.06997137e+09
 1.06997141e+09 1.06997145e+09 1.06997149e+09 1.06997153e+09
 1.06997157e+09 1.06997161e+09 1.06997166e+09 1.06997170e+09
 1.06997174e+09 1.06997178e+09 1.06997182e+09 1.06997186e+09
 1.06997190e+09 1.06997194e+09 1.06997198e+09 1.06997202e+09
 1.06997207e+09 1.06997211e+09 1.06997215e+09 1.06997219e+09
 1.06997223e+09 1.06997227e+09 1.06997231e+09 1.06997235e+09
 1.06997239e+09 1.06997244e+09 1.06997248e+09 1.06997252e+09
 1.06997256e+09 1.06997260e+09 1.06997264e+09 1.06997268e+09
 1.06997272e+09 1.06997276e+09 1.06997280e+09 1.06997285e+09
 1.06997289e+09 1.06997293e+09 1.06997297e+09 1.06997301e+09
 1.06997305e+09 1.06997309e+09 1.06997313e+09 1.06997317e+09
 1.06997322e+09 1.06997326e+09 1.06997330e+09 1.06997334e+09
 1.06997338e+09 1.06997342e+09 1.06997346e+09 1.06997350e+09
 1.06997354e+09 1.06997358e+09 1.06997363e+09 1.06997367e+09
 1.06997371e+09 1.06997375e+09 1.06997379e+09 1.06997383e+09
 1.06997387e+09 1.06997391e+09 1.06997395e+09 1.06997400e+09
 1.06997404e+09 1.06997408e+09 1.06997412e+09 1.06997416e+09
 1.06997420e+09 1.06997424e+09 1.06997428e+09 1.06997432e+09
 1.06997436e+09 1.06997441e+09 1.06997445e+09 1.06997449e+09
 1.06997453e+09 1.06997457e+09 1.06997461e+09 1.06997465e+09
 1.06997469e+09 1.06997473e+09 1.06997478e+09 1.06997482e+09
 1.06997486e+09 1.06997490e+09 1.06997494e+09 1.06997498e+09
 1.06997502e+09 1.06997506e+09 1.06997510e+09 1.06997515e+09
 1.06997519e+09 1.06997523e+09 1.06997527e+09 1.06997531e+09
 1.06997535e+09 1.06997539e+09 1.06997543e+09 1.06997547e+09
 1.06997551e+09 1.06997556e+09 1.06997560e+09 1.06997564e+09
 1.06997568e+09 1.06997572e+09 1.06997576e+09 1.06997580e+09
 1.06997584e+09 1.06997588e+09 1.06997593e+09 1.06997597e+09
 1.06997601e+09 1.06997605e+09 1.06997609e+09 1.06997613e+09
 1.06997617e+09 1.06997621e+09 1.06997625e+09 1.06997629e+09
 1.06997634e+09 1.06997638e+09 1.06997642e+09 1.06997646e+09
 1.06997650e+09 1.06997654e+09 1.06997658e+09 1.06997662e+09
 1.06997666e+09 1.06997671e+09 1.06997675e+09 1.06997679e+09
 1.06997683e+09 1.06997687e+09 1.06997691e+09 1.06997695e+09
 1.06997699e+09 1.06997703e+09 1.06997707e+09 1.06997712e+09
 1.06997716e+09 1.06997720e+09 1.06997724e+09 1.06997728e+09
 1.06997732e+09 1.06997736e+09 1.06997740e+09 1.06997744e+09
 1.06997749e+09 1.06997753e+09 1.06997757e+09 1.06997761e+09
 1.06997765e+09 1.06997769e+09 1.06997773e+09 1.06997777e+09
 1.06997781e+09 1.06997785e+09 1.06997790e+09 1.06997794e+09
 1.06997798e+09 1.06997802e+09 1.06997806e+09 1.06997810e+09
 1.06997814e+09 1.06997818e+09 1.06997822e+09 1.06997827e+09
 1.06997831e+09 1.06997835e+09 1.06997839e+09 1.06997843e+09
 1.06997847e+09 1.06997851e+09 1.06997855e+09 1.06997859e+09
 1.06997863e+09 1.06997868e+09 1.06997872e+09 1.06997876e+09
 1.06997880e+09 1.06997884e+09 1.06997888e+09 1.06997892e+09
 1.06997896e+09 1.06997900e+09 1.06997905e+09 1.06997909e+09
 1.06997913e+09 1.06997917e+09 1.06997921e+09 1.06997925e+09
 1.06997929e+09 1.06997933e+09 1.06997937e+09 1.06997941e+09
 1.06997946e+09 1.06997950e+09 1.06997954e+09 1.06997958e+09
 1.06997962e+09 1.06997966e+09 1.06997970e+09 1.06997974e+09
 1.06997978e+09 1.06997983e+09 1.06997987e+09 1.06997991e+09
 1.06997995e+09 1.06997999e+09 1.06998003e+09 1.06998007e+09
 1.06998011e+09 1.06998015e+09 1.06998020e+09 1.06998024e+09
 1.06998028e+09 1.06998032e+09 1.06998036e+09 1.06998040e+09
 1.06998044e+09 1.06998048e+09 1.06998052e+09 1.06998056e+09
 1.06998061e+09 1.06998065e+09 1.06998069e+09 1.06998073e+09
 1.06998077e+09 1.06998081e+09 1.06998085e+09 1.06998089e+09
 1.06998093e+09 1.06998098e+09 1.06998102e+09 1.06998106e+09
 1.06998110e+09 1.06998114e+09 1.06998118e+09 1.06998122e+09
 1.06998126e+09 1.06998130e+09 1.06998134e+09 1.06998139e+09
 1.06998143e+09 1.06998147e+09 1.06998151e+09 1.06998155e+09
 1.06998159e+09 1.06998163e+09 1.06998167e+09 1.06998171e+09
 1.06998176e+09 1.06998180e+09 1.06998184e+09 1.06998188e+09
 1.06998192e+09 1.06998196e+09 1.06998200e+09 1.06998204e+09
 1.06998208e+09 1.06998212e+09 1.06998217e+09 1.06998221e+09
 1.06998225e+09 1.06998229e+09 1.06998233e+09 1.06998237e+09
 1.06998241e+09 1.06998245e+09 1.06998249e+09 1.06998254e+09
