name =JUICE_ROI_GAN_2_0_04
flyby = ['2033 NOV 26 18:22:11', '2033 NOV 27 18:22:11']
Observation TW = <SpiceCell dtype = 1, length = 0, size = 2400, card = 4, is_set = 1, adjust = 0, init = 1, base = 93981712745888, data = 93981712745936>
Res(t) = [0.36184916 0.36211829 0.36247747 0.36292077 0.36344276 0.36403848
 0.36470337 0.36543323 0.36622422 0.36707277 0.3679756  0.36892966
 0.36993213 0.37098039 0.37207201 0.37320472 0.37437642 0.37558513
 0.37682901 0.37810634 0.37941551 0.38075501 0.38212341 0.38351938
 0.38494167 0.38638911 0.38786057 0.38935501 0.39087144 0.39240892
 0.39396658 0.39554356 0.39713909 0.39875242 0.40038282 0.40202962
 0.40369219 0.40536991 0.4070622  0.40876851 0.41048832 0.41222112
 0.41396644 0.41572382 0.41749283 0.41927305 0.42106409 0.42286557
 0.42467713 0.42649841 0.42832909 0.43016885 0.43201739 0.43387441
 0.43573963 0.43761278 0.43949361 0.44138187 0.44327733 0.44517974
 0.44708889 0.44900458 0.4509266  0.45285474 0.45478883 0.45672868
 0.45867412 0.46062498 0.46258109 0.46454231 0.46650847 0.46847943
 0.47045506 0.47243521 0.47441975 0.47640856 0.47840152 0.4803985
 0.48239939 0.48440409 0.48641248 0.48842446 0.49043992 0.49245878
 0.49448094 0.4965063  0.49853478 0.50056629 0.50260075 0.50463809
 0.50667821 0.50872105 0.51076653 0.51281458 0.51486514 0.51691813
 0.51897349 0.52103116 0.52309107 0.52515317 0.5272174  0.5292837
 0.53135202 0.5334223  0.53549449 0.53756854 0.53964441 0.54172204
 0.5438014  0.54588242 0.54796508 0.55004932 0.55213511 0.55422241
 0.55631117 0.55840137 0.56049295 0.56258589 0.56468014 0.56677568
 0.56887248 0.57097049 0.57306968 0.57517004 0.57727152 0.57937409
 0.58147773 0.58358241 0.5856881  0.58779477 0.5899024  0.59201097
 0.59412044 0.5962308  0.59834202 0.60045407 0.60256694 0.6046806
 0.60679503 0.60891021 0.61102612 0.61314274 0.61526005 0.61737803
 0.61949667 0.62161593 0.62373581 0.6258563  0.62797736 0.63009899
 0.63222116 0.63434387 0.6364671  0.63859083 0.64071504 0.64283973
 0.64496488 0.64709047 0.6492165  0.65134294 0.65346979 0.65559703
 0.65772465 0.65985264 0.66198099 0.66410968 0.6662387  0.66836805
 0.67049771 0.67262767 0.67475792 0.67688845 0.67901925 0.68115031
 0.68328162 0.68541318 0.68754497 0.68967698 0.6918092  0.69394164
 0.69607427 0.69820709 0.7003401  0.70247328 0.70460662 0.70674013
 0.70887378 0.71100759 0.71314153 0.7152756  0.71740979 0.7195441
 0.72167853 0.72381306 0.72594768 0.7280824  0.73021721 0.7323521
 0.73448706 0.73662209 0.73875719 0.74089235 0.74302756 0.74516281
 0.74729812 0.74943346 0.75156883 0.75370424 0.75583967 0.75797512
 0.76011059 0.76224607 0.76438155 0.76651704 0.76865253 0.77078802
 0.77292349 0.77505896 0.77719441 0.77932984 0.78146525 0.78360063
 0.78573598 0.7878713  0.79000658 0.79214183 0.79427703 0.79641219
 0.7985473  0.80068236 0.80281736 0.80495231 0.8070872  0.80922203
 0.81135679 0.81349149 0.81562612 0.81776068 0.81989516 0.82202957
 0.8241639  0.82629815 0.82843231 0.83056639 0.83270039 0.8348343
 0.83696812 0.83910184 0.84123547 0.84336901 0.84550245 0.84763579
 0.84976902 0.85190216 0.85403519 0.85616812 0.85830094 0.86043366
 0.86256626 0.86469875 0.86683113 0.8689634  0.87109555 0.87322759
 0.87535951 0.87749131 0.879623   0.88175456 0.88388601 0.88601733
 0.88814852 0.8902796  0.89241055 0.89454137 0.89667207 0.89880264
 0.90093308 0.90306339 0.90519358 0.90732363 0.90945356 0.91158335
 0.91371301 0.91584254 0.91797193 0.92010119 0.92223032 0.92435931
 0.92648817 0.92861689 0.93074548 0.93287393 0.93500225 0.93713043
 0.93925847 0.94138637 0.94351414 0.94564176 0.94776926 0.94989661
 0.95202382 0.9541509  0.95627783 0.95840463 0.96053129 0.96265781
 0.96478419 0.96691043 0.96903654 0.9711625  0.97328832 0.97541401
 0.97753956 0.97966496 0.98179023 0.98391536 0.98604035 0.98816521
 0.99028992 0.9924145  0.99453893 0.99666323 0.9987874  1.00091142
 1.00303531 1.00515906 1.00728267 1.00940615 1.01152949 1.0136527
 1.01577577 1.0178987  1.0200215  1.02214417 1.0242667  1.02638909
 1.02851136 1.03063349 1.03275548 1.03487735 1.03699908 1.03912069
 1.04124216 1.0433635  1.04548471 1.04760579 1.04972674 1.05184756
 1.05396826 1.05608883 1.05820927 1.06032958 1.06244977 1.06456983
 1.06668977 1.06880958 1.07092927 1.07304884 1.07516829 1.07728761
 1.07940681 1.08152589 1.08364485 1.0857637  1.08788242 1.09000103
 1.09211951 1.09423789 1.09635614 1.09847428 1.10059231 1.10271022
 1.10482802 1.10694571 1.10906328 1.11118075 1.1132981  1.11541535
 1.11753249 1.11964951 1.12176644 1.12388325 1.12599996 1.12811657
 1.13023307 1.13234947 1.13446576 1.13658196 1.13869805 1.14081404
 1.14292994 1.14504573 1.14716143 1.14927704 1.15139254 1.15350796
 1.15562327 1.1577385  1.15985363 1.16196867 1.16408363 1.16619849
 1.16831326 1.17042795 1.17254255 1.17465706 1.17677149 1.17888583
 1.18100009 1.18311427 1.18522837 1.18734239 1.18945632 1.19157018
 1.19368397 1.19579767 1.1979113  1.20002486 1.20213834 1.20425175
 1.20636509 1.20847835 1.21059155 1.21270468 1.21481774 1.21693073
 1.21904366 1.22115653 1.22326933 1.22538206 1.22749474 1.22960735
 1.23171991 1.2338324  1.23594484 1.23805723 1.24016955 1.24228183
 1.24439404 1.24650621 1.24861833 1.25073039 1.25284241 1.25495437
 1.25706629 1.25917817 1.26129    1.26340178 1.26551352 1.26762522
 1.26973688 1.2718485  1.27396008 1.27607163 1.27818313 1.28029461
 1.28240604 1.28451745 1.28662882 1.28874016 1.29085147 1.29296276
 1.29507401 1.29718524 1.29929644 1.30140762 1.30351878 1.30562991
 1.30774102 1.30985212 1.31196319 1.31407425 1.31618529 1.31829631
 1.32040732 1.32251832 1.32462931 1.32674028 1.32885125 1.3309622
 1.33307315 1.3351841  1.33729503 1.33940597 1.3415169  1.34362783
 1.34573876 1.34784969 1.34996062 1.35207155 1.35418249 1.35629344
 1.35840439 1.36051535 1.36262631 1.36473729 1.36684828 1.36895928
 1.37107029 1.37318132 1.37529237 1.37740343 1.37951451 1.38162561
 1.38373673 1.38584787 1.38795904 1.39007023 1.39218144 1.39429268
 1.39640395 1.39851525 1.40062658 1.40273793 1.40484933 1.40696075
 1.40907221 1.41118371 1.41329524 1.41540681 1.41751843 1.41963008
 1.42174177 1.42385351 1.4259653  1.42807712 1.430189   1.43230092
 1.4344129  1.43652492 1.438637   1.44074912 1.44286131 1.44497355
 1.44708584 1.44919819 1.45131061 1.45342308 1.45553561 1.45764821
 1.45976087 1.4618736  1.46398639 1.46609925 1.46821218 1.47032518
 1.47243825 1.47455139 1.47666461 1.4787779  1.48089127 1.48300471
 1.48511824 1.48723184 1.48934553 1.4914593  1.49357315 1.49568709
 1.49780111 1.49991522 1.50202942 1.50414371 1.50625809 1.50837257
 1.51048713 1.51260179 1.51471655 1.51683141 1.51894636 1.52106142
 1.52317657 1.52529183 1.52740719 1.52952265 1.53163823 1.53375391
 1.53586969 1.53798559 1.5401016  1.54221772 1.54433396 1.54645031
 1.54856677 1.55068336 1.55280006 1.55491688 1.55703382 1.55915089
 1.56126808 1.56338539 1.56550283 1.5676204  1.56973809 1.57185592
 1.57397388 1.57609197 1.57821019 1.58032855 1.58244705 1.58456568
 1.58668445 1.58880336 1.59092241 1.59304161 1.59516095 1.59728043
 1.59940006 1.60151984 1.60363977 1.60575984 1.60788007 1.61000045
 1.61212099 1.61424168 1.61636252 1.61848353 1.62060469 1.62272602
 1.6248475  1.62696915 1.62909096 1.63121294 1.63333508 1.63545739
 1.63757987 1.63970253 1.64182535 1.64394834 1.64607152 1.64819486
 1.65031838 1.65244208 1.65456596 1.65669002 1.65881427 1.66093869
 1.6630633  1.6651881  1.66731308 1.66943825 1.67156361 1.67368916
 1.6758149  1.67794084 1.68006697 1.68219329 1.68431982 1.68644654
 1.68857346 1.69070058 1.69282791 1.69495543 1.69708317 1.69921111
 1.70133925 1.70346761 1.70559617 1.70772495 1.70985393 1.71198313
 1.71411255 1.71624218 1.71837203 1.7205021  1.72263239 1.7247629
 1.72689363 1.72902459 1.73115577 1.73328718 1.73541881 1.73755068
 1.73968277 1.7418151  1.74394766 1.74608045 1.74821348 1.75034674
 1.75248025 1.75461399 1.75674797 1.75888219 1.76101666 1.76315137
 1.76528633 1.76742153 1.76955698 1.77169268 1.77382863 1.77596484
 1.77810129 1.780238   1.78237497 1.78451219 1.78664968 1.78878742
 1.79092542 1.79306368 1.79520221 1.797341   1.79948006 1.80161939
 1.80375898 1.80589884 1.80803898 1.81017938 1.81232006 1.81446102
 1.81660225 1.81874376 1.82088554 1.82302761 1.82516996 1.82731259
 1.8294555  1.8315987  1.83374219 1.83588596 1.83803002 1.84017438
 1.84231902 1.84446396 1.84660919 1.84875471 1.85090053 1.85304665
 1.85519307 1.85733979 1.85948681 1.86163413 1.86378176 1.86592969
 1.86807793 1.87022648 1.87237533 1.8745245  1.87667398 1.87882377
 1.88097387 1.88312429 1.88527503 1.88742609 1.88957746 1.89172916
 1.89388118 1.89603352 1.89818618 1.90033917 1.90249249 1.90464614
 1.90680011 1.90895442 1.91110906 1.91326403 1.91541933 1.91757498
 1.91973095 1.92188727 1.92404393 1.92620093 1.92835827 1.93051595
 1.93267398 1.93483235 1.93699107 1.93915014 1.94130956 1.94346933
 1.94562946 1.94778993 1.94995076 1.95211195 1.9542735  1.9564354
 1.95859766 1.96076029 1.96292327 1.96508662 1.96725034 1.96941442
 1.97157887 1.97374369 1.97590888 1.97807443 1.98024037 1.98240667
 1.98457335 1.98674041 1.98890784 1.99107565 1.99324385 1.99541242
 1.99758138 1.99975072 2.00192045 2.00409056 2.00626106 2.00843195
 2.01060323 2.0127749  2.01494696 2.01711942 2.01929227 2.02146552
 2.02363916 2.02581321 2.02798765 2.0301625  2.03233775 2.0345134
 2.03668946 2.03886593 2.0410428  2.04322008 2.04539777 2.04757588
 2.0497544  2.05193333 2.05411267 2.05629243 2.05847261 2.06065321
 2.06283423 2.06501567 2.06719754 2.06937983 2.07156254 2.07374568
 2.07592925 2.07811324 2.08029767 2.08248253 2.08466782 2.08685355
 2.08903971 2.0912263  2.09341334 2.09560081 2.09778873 2.09997708
 2.10216588 2.10435513 2.10654481 2.10873495 2.11092553 2.11311656
 2.11530804 2.11749998 2.11969236 2.1218852  2.1240785  2.12627225
 2.12846646 2.13066113 2.13285626 2.13505185 2.1372479  2.13944442
 2.1416414  2.14383885 2.14603676 2.14823515 2.15043401 2.15263333
 2.15483313 2.15703341 2.15923415 2.16143538 2.16363708 2.16583926
 2.16804192 2.17024507 2.17244869 2.1746528  2.1768574  2.17906248
 2.18126804 2.1834741  2.18568065 2.18788769 2.19009522 2.19230324
 2.19451176 2.19672078 2.19893029 2.2011403  2.20335081 2.20556182
 2.20777334 2.20998536 2.21219788 2.21441091 2.21662445 2.21883849
 2.22105305 2.22326811 2.22548369 2.22769978 2.22991639 2.23213351
 2.23435115 2.23656931 2.23878798 2.24100718 2.2432269  2.24544715
 2.24766791 2.24988921 2.25211103 2.25433338 2.25655625 2.25877966
 2.2610036  2.26322808 2.26545308 2.26767863 2.26990471 2.27213133
 2.27435848 2.27658618 2.27881442 2.2810432  2.28327253 2.2855024
 2.28773282 2.28996378 2.2921953  2.29442736 2.29665998 2.29889315
 2.30112687 2.30336115 2.30559599 2.30783138 2.31006733 2.31230384
 2.31454091 2.31677854 2.31901674 2.3212555  2.32349483 2.32573473
 2.32797519 2.33021623 2.33245783 2.33470001 2.33694276 2.33918608
 2.34142998 2.34367446 2.34591952 2.34816515 2.35041137 2.35265817
 2.35490555 2.35715351 2.35940206 2.3616512  2.36390092 2.36615124
 2.36840214 2.37065364 2.37290572 2.37515841 2.37741168 2.37966556
 2.38192003 2.3841751  2.38643077 2.38868704 2.39094391 2.39320139
 2.39545947 2.39771816 2.39997745 2.40223735 2.40449787 2.40675899
 2.40902073 2.41128307 2.41354604 2.41580962 2.41807381 2.42033862
 2.42260406 2.42487011 2.42713678 2.42940408 2.431672   2.43394055
 2.43620972 2.43847952 2.44074995 2.44302101 2.4452927  2.44756502
 2.44983798 2.45211157 2.45438579 2.45666066]
t = [1.06996106e+09 1.06996110e+09 1.06996114e+09 1.06996118e+09
 1.06996121e+09 1.06996125e+09 1.06996129e+09 1.06996133e+09
 1.06996137e+09 1.06996141e+09 1.06996145e+09 1.06996149e+09
 1.06996153e+09 1.06996157e+09 1.06996161e+09 1.06996165e+09
 1.06996169e+09 1.06996173e+09 1.06996177e+09 1.06996181e+09
 1.06996185e+09 1.06996189e+09 1.06996193e+09 1.06996197e+09
 1.06996201e+09 1.06996205e+09 1.06996209e+09 1.06996213e+09
 1.06996216e+09 1.06996220e+09 1.06996224e+09 1.06996228e+09
 1.06996232e+09 1.06996236e+09 1.06996240e+09 1.06996244e+09
 1.06996248e+09 1.06996252e+09 1.06996256e+09 1.06996260e+09
 1.06996264e+09 1.06996268e+09 1.06996272e+09 1.06996276e+09
 1.06996280e+09 1.06996284e+09 1.06996288e+09 1.06996292e+09
 1.06996296e+09 1.06996300e+09 1.06996304e+09 1.06996308e+09
 1.06996311e+09 1.06996315e+09 1.06996319e+09 1.06996323e+09
 1.06996327e+09 1.06996331e+09 1.06996335e+09 1.06996339e+09
 1.06996343e+09 1.06996347e+09 1.06996351e+09 1.06996355e+09
 1.06996359e+09 1.06996363e+09 1.06996367e+09 1.06996371e+09
 1.06996375e+09 1.06996379e+09 1.06996383e+09 1.06996387e+09
 1.06996391e+09 1.06996395e+09 1.06996399e+09 1.06996403e+09
 1.06996406e+09 1.06996410e+09 1.06996414e+09 1.06996418e+09
 1.06996422e+09 1.06996426e+09 1.06996430e+09 1.06996434e+09
 1.06996438e+09 1.06996442e+09 1.06996446e+09 1.06996450e+09
 1.06996454e+09 1.06996458e+09 1.06996462e+09 1.06996466e+09
 1.06996470e+09 1.06996474e+09 1.06996478e+09 1.06996482e+09
 1.06996486e+09 1.06996490e+09 1.06996494e+09 1.06996498e+09
 1.06996501e+09 1.06996505e+09 1.06996509e+09 1.06996513e+09
 1.06996517e+09 1.06996521e+09 1.06996525e+09 1.06996529e+09
 1.06996533e+09 1.06996537e+09 1.06996541e+09 1.06996545e+09
 1.06996549e+09 1.06996553e+09 1.06996557e+09 1.06996561e+09
 1.06996565e+09 1.06996569e+09 1.06996573e+09 1.06996577e+09
 1.06996581e+09 1.06996585e+09 1.06996589e+09 1.06996593e+09
 1.06996596e+09 1.06996600e+09 1.06996604e+09 1.06996608e+09
 1.06996612e+09 1.06996616e+09 1.06996620e+09 1.06996624e+09
 1.06996628e+09 1.06996632e+09 1.06996636e+09 1.06996640e+09
 1.06996644e+09 1.06996648e+09 1.06996652e+09 1.06996656e+09
 1.06996660e+09 1.06996664e+09 1.06996668e+09 1.06996672e+09
 1.06996676e+09 1.06996680e+09 1.06996684e+09 1.06996688e+09
 1.06996691e+09 1.06996695e+09 1.06996699e+09 1.06996703e+09
 1.06996707e+09 1.06996711e+09 1.06996715e+09 1.06996719e+09
 1.06996723e+09 1.06996727e+09 1.06996731e+09 1.06996735e+09
 1.06996739e+09 1.06996743e+09 1.06996747e+09 1.06996751e+09
 1.06996755e+09 1.06996759e+09 1.06996763e+09 1.06996767e+09
 1.06996771e+09 1.06996775e+09 1.06996779e+09 1.06996783e+09
 1.06996786e+09 1.06996790e+09 1.06996794e+09 1.06996798e+09
 1.06996802e+09 1.06996806e+09 1.06996810e+09 1.06996814e+09
 1.06996818e+09 1.06996822e+09 1.06996826e+09 1.06996830e+09
 1.06996834e+09 1.06996838e+09 1.06996842e+09 1.06996846e+09
 1.06996850e+09 1.06996854e+09 1.06996858e+09 1.06996862e+09
 1.06996866e+09 1.06996870e+09 1.06996874e+09 1.06996878e+09
 1.06996881e+09 1.06996885e+09 1.06996889e+09 1.06996893e+09
 1.06996897e+09 1.06996901e+09 1.06996905e+09 1.06996909e+09
 1.06996913e+09 1.06996917e+09 1.06996921e+09 1.06996925e+09
 1.06996929e+09 1.06996933e+09 1.06996937e+09 1.06996941e+09
 1.06996945e+09 1.06996949e+09 1.06996953e+09 1.06996957e+09
 1.06996961e+09 1.06996965e+09 1.06996969e+09 1.06996973e+09
 1.06996976e+09 1.06996980e+09 1.06996984e+09 1.06996988e+09
 1.06996992e+09 1.06996996e+09 1.06997000e+09 1.06997004e+09
 1.06997008e+09 1.06997012e+09 1.06997016e+09 1.06997020e+09
 1.06997024e+09 1.06997028e+09 1.06997032e+09 1.06997036e+09
 1.06997040e+09 1.06997044e+09 1.06997048e+09 1.06997052e+09
 1.06997056e+09 1.06997060e+09 1.06997064e+09 1.06997068e+09
 1.06997071e+09 1.06997075e+09 1.06997079e+09 1.06997083e+09
 1.06997087e+09 1.06997091e+09 1.06997095e+09 1.06997099e+09
 1.06997103e+09 1.06997107e+09 1.06997111e+09 1.06997115e+09
 1.06997119e+09 1.06997123e+09 1.06997127e+09 1.06997131e+09
 1.06997135e+09 1.06997139e+09 1.06997143e+09 1.06997147e+09
 1.06997151e+09 1.06997155e+09 1.06997159e+09 1.06997163e+09
 1.06997166e+09 1.06997170e+09 1.06997174e+09 1.06997178e+09
 1.06997182e+09 1.06997186e+09 1.06997190e+09 1.06997194e+09
 1.06997198e+09 1.06997202e+09 1.06997206e+09 1.06997210e+09
 1.06997214e+09 1.06997218e+09 1.06997222e+09 1.06997226e+09
 1.06997230e+09 1.06997234e+09 1.06997238e+09 1.06997242e+09
 1.06997246e+09 1.06997250e+09 1.06997254e+09 1.06997258e+09
 1.06997261e+09 1.06997265e+09 1.06997269e+09 1.06997273e+09
 1.06997277e+09 1.06997281e+09 1.06997285e+09 1.06997289e+09
 1.06997293e+09 1.06997297e+09 1.06997301e+09 1.06997305e+09
 1.06997309e+09 1.06997313e+09 1.06997317e+09 1.06997321e+09
 1.06997325e+09 1.06997329e+09 1.06997333e+09 1.06997337e+09
 1.06997341e+09 1.06997345e+09 1.06997349e+09 1.06997353e+09
 1.06997356e+09 1.06997360e+09 1.06997364e+09 1.06997368e+09
 1.06997372e+09 1.06997376e+09 1.06997380e+09 1.06997384e+09
 1.06997388e+09 1.06997392e+09 1.06997396e+09 1.06997400e+09
 1.06997404e+09 1.06997408e+09 1.06997412e+09 1.06997416e+09
 1.06997420e+09 1.06997424e+09 1.06997428e+09 1.06997432e+09
 1.06997436e+09 1.06997440e+09 1.06997444e+09 1.06997448e+09
 1.06997451e+09 1.06997455e+09 1.06997459e+09 1.06997463e+09
 1.06997467e+09 1.06997471e+09 1.06997475e+09 1.06997479e+09
 1.06997483e+09 1.06997487e+09 1.06997491e+09 1.06997495e+09
 1.06997499e+09 1.06997503e+09 1.06997507e+09 1.06997511e+09
 1.06997515e+09 1.06997519e+09 1.06997523e+09 1.06997527e+09
 1.06997531e+09 1.06997535e+09 1.06997539e+09 1.06997543e+09
 1.06997546e+09 1.06997550e+09 1.06997554e+09 1.06997558e+09
 1.06997562e+09 1.06997566e+09 1.06997570e+09 1.06997574e+09
 1.06997578e+09 1.06997582e+09 1.06997586e+09 1.06997590e+09
 1.06997594e+09 1.06997598e+09 1.06997602e+09 1.06997606e+09
 1.06997610e+09 1.06997614e+09 1.06997618e+09 1.06997622e+09
 1.06997626e+09 1.06997630e+09 1.06997634e+09 1.06997638e+09
 1.06997641e+09 1.06997645e+09 1.06997649e+09 1.06997653e+09
 1.06997657e+09 1.06997661e+09 1.06997665e+09 1.06997669e+09
 1.06997673e+09 1.06997677e+09 1.06997681e+09 1.06997685e+09
 1.06997689e+09 1.06997693e+09 1.06997697e+09 1.06997701e+09
 1.06997705e+09 1.06997709e+09 1.06997713e+09 1.06997717e+09
 1.06997721e+09 1.06997725e+09 1.06997729e+09 1.06997733e+09
 1.06997736e+09 1.06997740e+09 1.06997744e+09 1.06997748e+09
 1.06997752e+09 1.06997756e+09 1.06997760e+09 1.06997764e+09
 1.06997768e+09 1.06997772e+09 1.06997776e+09 1.06997780e+09
 1.06997784e+09 1.06997788e+09 1.06997792e+09 1.06997796e+09
 1.06997800e+09 1.06997804e+09 1.06997808e+09 1.06997812e+09
 1.06997816e+09 1.06997820e+09 1.06997824e+09 1.06997828e+09
 1.06997831e+09 1.06997835e+09 1.06997839e+09 1.06997843e+09
 1.06997847e+09 1.06997851e+09 1.06997855e+09 1.06997859e+09
 1.06997863e+09 1.06997867e+09 1.06997871e+09 1.06997875e+09
 1.06997879e+09 1.06997883e+09 1.06997887e+09 1.06997891e+09
 1.06997895e+09 1.06997899e+09 1.06997903e+09 1.06997907e+09
 1.06997911e+09 1.06997915e+09 1.06997919e+09 1.06997923e+09
 1.06997926e+09 1.06997930e+09 1.06997934e+09 1.06997938e+09
 1.06997942e+09 1.06997946e+09 1.06997950e+09 1.06997954e+09
 1.06997958e+09 1.06997962e+09 1.06997966e+09 1.06997970e+09
 1.06997974e+09 1.06997978e+09 1.06997982e+09 1.06997986e+09
 1.06997990e+09 1.06997994e+09 1.06997998e+09 1.06998002e+09
 1.06998006e+09 1.06998010e+09 1.06998014e+09 1.06998018e+09
 1.06998021e+09 1.06998025e+09 1.06998029e+09 1.06998033e+09
 1.06998037e+09 1.06998041e+09 1.06998045e+09 1.06998049e+09
 1.06998053e+09 1.06998057e+09 1.06998061e+09 1.06998065e+09
 1.06998069e+09 1.06998073e+09 1.06998077e+09 1.06998081e+09
 1.06998085e+09 1.06998089e+09 1.06998093e+09 1.06998097e+09
 1.06998101e+09 1.06998105e+09 1.06998109e+09 1.06998113e+09
 1.06998116e+09 1.06998120e+09 1.06998124e+09 1.06998128e+09
 1.06998132e+09 1.06998136e+09 1.06998140e+09 1.06998144e+09
 1.06998148e+09 1.06998152e+09 1.06998156e+09 1.06998160e+09
 1.06998164e+09 1.06998168e+09 1.06998172e+09 1.06998176e+09
 1.06998180e+09 1.06998184e+09 1.06998188e+09 1.06998192e+09
 1.06998196e+09 1.06998200e+09 1.06998204e+09 1.06998208e+09
 1.06998211e+09 1.06998215e+09 1.06998219e+09 1.06998223e+09
 1.06998227e+09 1.06998231e+09 1.06998235e+09 1.06998239e+09
 1.06998243e+09 1.06998247e+09 1.06998251e+09 1.06998255e+09
 1.06998259e+09 1.06998263e+09 1.06998267e+09 1.06998271e+09
 1.06998275e+09 1.06998279e+09 1.06998283e+09 1.06998287e+09
 1.06998291e+09 1.06998295e+09 1.06998299e+09 1.06998303e+09
 1.06998306e+09 1.06998310e+09 1.06998314e+09 1.06998318e+09
