name =JUICE_ROI_GAN_4_4_02
flyby = ['2034 SEP 28 18:48:51', '2034 SEP 29 18:48:51']
Observation TW = <SpiceCell dtype = 1, length = 0, size = 3400, card = 14, is_set = 1, adjust = 0, init = 1, base = 94193961975248, data = 94193961975296>
Res(t) = [1.2348521  1.23392355 1.23299764 1.23207438 1.23115376 1.23023579
 1.22932047 1.2284078  1.22749777 1.2265904  1.22568567 1.2247836
 1.22388418 1.22298742 1.2220933  1.22120185 1.22031305 1.21942691
 1.21854343 1.21766261 1.21678445 1.21590895 1.21503611 1.21416593
 1.21329842 1.21243357 1.21157139 1.21071188 1.20985503 1.20900085
 1.20814934 1.20730049 1.20645432 1.20561082 1.20476999 1.20393183
 1.20309635 1.20226353 1.2014334  1.20060594 1.19978115 1.19895904
 1.19813961 1.19732286 1.19650878 1.19569738 1.19488867 1.19408263
 1.19327927 1.1924786  1.19168061 1.1908853  1.19009267 1.18930273
 1.18851547 1.1877309  1.18694901 1.1861698  1.18539329 1.18461946
 1.18384831 1.18307986 1.18231409 1.18155101 1.18079062 1.18003292
 1.17927791 1.17852559 1.17777596 1.17702901 1.17628477 1.17554321
 1.17480434 1.17406817 1.17333468 1.17260389 1.1718758  1.17115039
 1.17042768 1.16970767 1.16899034 1.16827571 1.16756378 1.16685454
 1.16614799 1.16544414 1.16474298 1.16404452 1.16334875 1.16265568
 1.1619653  1.16127762 1.16059263 1.15991034 1.15923075 1.15855385
 1.15787964 1.15720813 1.15653932 1.1558732  1.15520978 1.15454905
 1.15389102 1.15323568 1.15258304 1.15193309 1.15128584 1.15064128
 1.14999942 1.14936025 1.14872377 1.14808999 1.1474589  1.14683051
 1.14620481 1.1455818  1.14496149 1.14434387 1.14372894 1.1431167
 1.14250715 1.1419003  1.14129614 1.14069466 1.14009588 1.13949979
 1.13890639 1.13831567 1.13772765 1.13714231 1.13655966 1.1359797
 1.13540242 1.13482783 1.13425593 1.13368671 1.13312017 1.13255632
 1.13199516 1.13143667 1.13088087 1.13032775 1.12977731 1.12922956
 1.12868448 1.12814208 1.12760236 1.12706531 1.12653095 1.12599926
 1.12547024 1.1249439  1.12442024 1.12389924 1.12338092 1.12286527
 1.1223523  1.12184199 1.12133435 1.12082938 1.12032707 1.11982743
 1.11933046 1.11883615 1.1183445  1.11785552 1.1173692  1.11688554
 1.11640454 1.11592619 1.11545051 1.11497748 1.1145071  1.11403938
 1.11357431 1.1131119  1.11265213 1.11219501 1.11174055 1.11128873
 1.11083955 1.11039302 1.10994913 1.10950789 1.10906929 1.10863332
 1.1082     1.10776931 1.10734125 1.10691583 1.10649305 1.10607289
 1.10565537 1.10524048 1.10482821 1.10441857 1.10401155 1.10360715
 1.10320538 1.10280623 1.10240969 1.10201578 1.10162447 1.10123579
 1.10084971 1.10046625 1.10008539 1.09970714 1.0993315  1.09895846
 1.09858802 1.09822019 1.09785495 1.09749231 1.09713227 1.09677482
 1.09641997 1.0960677  1.09571802 1.09537093 1.09502642 1.0946845
 1.09434516 1.0940084  1.09367421 1.0933426  1.09301357 1.0926871
 1.09236321 1.09204188 1.09172312 1.09140693 1.09109329 1.09078222
 1.0904737  1.09016774 1.08986433 1.08956347 1.08926517 1.08896941
 1.08867619 1.08838552 1.08809739 1.0878118  1.08752875 1.08724823
 1.08697024 1.08669478 1.08642185 1.08615144 1.08588356 1.0856182
 1.08535535 1.08509503 1.08483721 1.08458191 1.08432912 1.08407883
 1.08383105 1.08358577 1.08334299 1.0831027  1.08286491 1.08262962
 1.08239681 1.08216649 1.08193865 1.08171329 1.08149042 1.08127002
 1.0810521  1.08083664 1.08062366 1.08041314 1.08020509 1.0799995
 1.07979636 1.07959568 1.07939746 1.07920168 1.07900835 1.07881747
 1.07862903 1.07844303 1.07825947 1.07807833 1.07789963 1.07772336
 1.07754952 1.07737809 1.07720909 1.0770425  1.07687832 1.07671656
 1.07655721 1.07640026 1.07624571 1.07609356 1.0759438  1.07579644
 1.07565147 1.07550889 1.07536869 1.07523088 1.07509544 1.07496237
 1.07483168 1.07470335 1.07457739 1.0744538  1.07433256 1.07421368
 1.07409715 1.07398297 1.07387114 1.07376165 1.07365451 1.0735497
 1.07344722 1.07334707 1.07324925 1.07315376 1.07306058 1.07296972
 1.07288118 1.07279495 1.07271102 1.0726294  1.07255008 1.07247305
 1.07239832 1.07232588 1.07225573 1.07218786 1.07212227 1.07205896
 1.07199792 1.07193915 1.07188265 1.07182841 1.07177642 1.0717267
 1.07167922 1.071634   1.07159102 1.07155028 1.07151178 1.07147551
 1.07144147 1.07140966 1.07138008 1.07135271 1.07132756 1.07130463
 1.0712839  1.07126537 1.07124905 1.07123493 1.07122299 1.07121325
 1.0712057  1.07120033 1.07119713 1.07119612 1.07119727 1.07120059
 1.07120608 1.07121372 1.07122352 1.07123548 1.07124958 1.07126583
 1.07128421 1.07130474 1.0713274  1.07135218 1.07137909 1.07140813
 1.07143928 1.07147254 1.07150791 1.07154539 1.07158497 1.07162665
 1.07167042 1.07171628 1.07176423 1.07181426 1.07186636 1.07192054
 1.07197679 1.0720351  1.07209548 1.07215791 1.0722224  1.07228893
 1.07235751 1.07242813 1.07250079 1.07257548 1.0726522  1.07273095
 1.07281171 1.07289449 1.07297928 1.07306608 1.07315489 1.07324569
 1.07333849 1.07343328 1.07353006 1.07362882 1.07372955 1.07383227
 1.07393695 1.0740436  1.07415221 1.07426278 1.0743753  1.07448977
 1.07460618 1.07472453 1.07484482 1.07496704 1.07509119 1.07521726
 1.07534525 1.07547516 1.07560697 1.07574069 1.07587632 1.07601384
 1.07615325 1.07629455 1.07643773 1.07658279 1.07672973 1.07687854
 1.07702922 1.07718175 1.07733615 1.0774924  1.07765049 1.07781043
 1.07797222 1.07813583 1.07830128 1.07846855 1.07863765 1.07880856
 1.07898129 1.07915583 1.07933217 1.07951031 1.07969024 1.07987197
 1.08005548 1.08024077 1.08042784 1.08061669 1.0808073  1.08099968
 1.08119381 1.0813897  1.08158734 1.08178673 1.08198786 1.08219072
 1.08239532 1.08260164 1.08280969 1.08301945 1.08323093 1.08344412
 1.08365901 1.08387561 1.0840939  1.08431388 1.08453554 1.08475889
 1.08498392 1.08521062 1.08543898 1.08566901 1.0859007  1.08613405
 1.08636904 1.08660568 1.08684396 1.08708387 1.08732542 1.08756859
 1.08781339 1.0880598  1.08830782 1.08855746 1.08880869 1.08906153
 1.08931596 1.08957198 1.08982959 1.09008877 1.09034953 1.09061187
 1.09087577 1.09114123 1.09140824 1.09167682 1.09194693 1.0922186
 1.0924918  1.09276653 1.0930428  1.09332058 1.09359989 1.09388072
 1.09416305 1.09444689 1.09473224 1.09501908 1.09530741 1.09559722
 1.09588853 1.09618131 1.09647556 1.09677128 1.09706847 1.09736711
 1.09766721 1.09796876 1.09827176 1.09857619 1.09888207 1.09918937
 1.0994981  1.09980825 1.10011983 1.10043281 1.1007472  1.101063
 1.10138019 1.10169878 1.10201875 1.10234012 1.10266286 1.10298698
 1.10331247 1.10363932 1.10396754 1.10429711 1.10462804 1.10496031
 1.10529393 1.10562888 1.10596517 1.10630279 1.10664173 1.10698199
 1.10732357 1.10766646 1.10801065 1.10835615 1.10870294 1.10905102
 1.10940039 1.10975104 1.11010297 1.11045618 1.11081065 1.11116639
 1.11152338 1.11188164 1.11224114 1.11260189 1.11296387 1.1133271
 1.11369156 1.11405724 1.11442415 1.11479227 1.11516161 1.11553216
 1.11590391 1.11627686 1.116651   1.11702634 1.11740286 1.11778057
 1.11815945 1.1185395  1.11892072 1.11930311 1.11968665 1.12007134
 1.12045719 1.12084418 1.12123231 1.12162158 1.12201197 1.1224035
 1.12279615 1.12318991 1.12358479 1.12398077 1.12437786 1.12477605
 1.12517534 1.12557571 1.12597717 1.12637972 1.12678333 1.12718803
 1.12759379 1.12800061 1.12840849 1.12881743 1.12922742 1.12963845
 1.13005053 1.13046364 1.13087778 1.13129295 1.13170915 1.13212636
 1.13254459 1.13296383 1.13338407 1.13380532 1.13422756 1.13465079
 1.13507502 1.13550022 1.13592641 1.13635357 1.1367817  1.13721079
 1.13764085 1.13807187 1.13850384 1.13893675 1.13937062 1.13980542
 1.14024115 1.14067782 1.14111542 1.14155393 1.14199337 1.14243372
 1.14287498 1.14331714 1.14376021 1.14420417 1.14464903 1.14509477
 1.14554139 1.1459889  1.14643728 1.14688653 1.14733665 1.14778763
 1.14823947 1.14869217 1.14914571 1.1496001  1.15005533 1.1505114
 1.1509683  1.15142603 1.15188458 1.15234396 1.15280415 1.15326515
 1.15372696 1.15418957 1.15465299 1.1551172  1.1555822  1.15604798
 1.15651455 1.1569819  1.15745003 1.15791892 1.15838858 1.158859
 1.15933019 1.15980212 1.16027481 1.16074824 1.16122241 1.16169732
 1.16217297 1.16264934 1.16312644 1.16360427 1.16408281 1.16456206
 1.16504203 1.16552269 1.16600407 1.16648613 1.1669689  1.16745235
 1.16793649 1.16842131 1.16890681 1.16939298 1.16987982 1.17036733
 1.1708555  1.17134433 1.17183381 1.17232394 1.17281472 1.17330614
 1.1737982  1.1742909  1.17478423 1.17527818 1.17577276 1.17626795
 1.17676377 1.17726019 1.17775722 1.17825486 1.17875309 1.17925193
 1.17975135 1.18025137 1.18075197 1.18125315 1.18175491 1.18225724
 1.18276014 1.18326361 1.18376764 1.18427224 1.18477738 1.18528308
 1.18578933 1.18629611 1.18680345 1.18731131 1.18781971 1.18832864
 1.1888381  1.18934808 1.18985857 1.19036958 1.19088111 1.19139314
 1.19190567 1.1924187  1.19293224 1.19344626 1.19396078 1.19447578
 1.19499126 1.19550722 1.19602366 1.19654057 1.19705795 1.19757579
 1.1980941  1.19861286 1.19913208 1.19965175 1.20017187 1.20069243
 1.20121343 1.20173487 1.20225674 1.20277904 1.20330177 1.20382492
 1.2043485  1.20487249 1.20539689 1.2059217  1.20644692 1.20697254
 1.20749857 1.20802499 1.2085518  1.209079   1.20960659 1.21013456
 1.21066291 1.21119164 1.21172074 1.21225021 1.21278005 1.21331025
 1.21384081 1.21437173 1.214903   1.21543463 1.2159666  1.21649891
 1.21703157 1.21756456 1.21809789 1.21863155 1.21916553 1.21969984
 1.22023448 1.22076943 1.2213047  1.22184028 1.22237617 1.22291236
 1.22344886 1.22398566 1.22452276 1.22506015 1.22559783 1.2261358
 1.22667405 1.22721259 1.2277514  1.22829049 1.22882985 1.22936948
 1.22990938 1.23044954 1.23098997 1.23153065 1.23207158 1.23261277
 1.2331542  1.23369588 1.23423781 1.23477997 1.23532237 1.23586501
 1.23640788 1.23695097 1.23749429 1.23803784 1.2385816  1.23912558
 1.23966978 1.24021418 1.2407588  1.24130362 1.24184864 1.24239387
 1.24293929 1.24348491 1.24403071 1.24457671 1.24512289 1.24566926
 1.24621581 1.24676254 1.24730944 1.24785651 1.24840376 1.24895117
 1.24949874 1.25004648 1.25059438 1.25114243 1.25169064 1.252239
 1.25278751 1.25333616 1.25388496 1.2544339  1.25498298 1.25553219
 1.25608154 1.25663102 1.25718062 1.25773035 1.2582802  1.25883018
 1.25938027 1.25993048 1.2604808  1.26103123 1.26158177 1.26213241
 1.26268316 1.26323401 1.26378496 1.264336   1.26488713 1.26543836
 1.26598967 1.26654108 1.26709256 1.26764412 1.26819577 1.26874749
 1.26929928 1.26985115 1.27040309 1.27095509 1.27150716 1.27205929
 1.27261148 1.27316373 1.27371603 1.27426839 1.2748208  1.27537325
 1.27592576 1.2764783  1.27703089 1.27758352 1.27813619 1.27868889
 1.27924163 1.27979439 1.28034719 1.28090001 1.28145286 1.28200573
 1.28255861 1.28311152 1.28366444 1.28421738 1.28477032 1.28532328
 1.28587625 1.28642921 1.28698219 1.28753516 1.28808813 1.2886411
 1.28919407 1.28974703 1.29029997 1.29085291 1.29140584 1.29195874
 1.29251164 1.29306451 1.29361736 1.29417019 1.29472299 1.29527577
 1.29582852 1.29638123 1.29693392 1.29748657 1.29803918 1.29859175
 1.29914429 1.29969678 1.30024923 1.30080163 1.30135398 1.30190628
 1.30245853 1.30301073 1.30356288 1.30411496 1.30466699 1.30521896
 1.30577086 1.3063227  1.30687447 1.30742618 1.30797782 1.30852938
 1.30908087 1.30963229 1.31018363 1.31073489 1.31128608 1.31183718
 1.3123882  1.31293913 1.31348997 1.31404073 1.3145914  1.31514198
 1.31569246 1.31624285 1.31679314 1.31734333 1.31789343 1.31844342
 1.31899331 1.3195431  1.32009278 1.32064235 1.32119181 1.32174116
 1.3222904  1.32283953 1.32338854 1.32393743 1.32448621 1.32503486
 1.3255834  1.32613181 1.3266801  1.32722826]
t = [1.09637115e+09 1.09637122e+09 1.09637129e+09 1.09637136e+09
 1.09637143e+09 1.09637150e+09 1.09637157e+09 1.09637164e+09
 1.09637171e+09 1.09637178e+09 1.09637185e+09 1.09637191e+09
 1.09637198e+09 1.09637205e+09 1.09637212e+09 1.09637219e+09
 1.09637226e+09 1.09637233e+09 1.09637240e+09 1.09637247e+09
 1.09637254e+09 1.09637261e+09 1.09637268e+09 1.09637275e+09
 1.09637282e+09 1.09637289e+09 1.09637296e+09 1.09637303e+09
 1.09637310e+09 1.09637317e+09 1.09637324e+09 1.09637331e+09
 1.09637337e+09 1.09637344e+09 1.09637351e+09 1.09637358e+09
 1.09637365e+09 1.09637372e+09 1.09637379e+09 1.09637386e+09
 1.09637393e+09 1.09637400e+09 1.09637407e+09 1.09637414e+09
 1.09637421e+09 1.09637428e+09 1.09637435e+09 1.09637442e+09
 1.09637449e+09 1.09637456e+09 1.09637463e+09 1.09637470e+09
 1.09637477e+09 1.09637483e+09 1.09637490e+09 1.09637497e+09
 1.09637504e+09 1.09637511e+09 1.09637518e+09 1.09637525e+09
 1.09637532e+09 1.09637539e+09 1.09637546e+09 1.09637553e+09
 1.09637560e+09 1.09637567e+09 1.09637574e+09 1.09637581e+09
 1.09637588e+09 1.09637595e+09 1.09637602e+09 1.09637609e+09
 1.09637616e+09 1.09637623e+09 1.09637629e+09 1.09637636e+09
 1.09637643e+09 1.09637650e+09 1.09637657e+09 1.09637664e+09
 1.09637671e+09 1.09637678e+09 1.09637685e+09 1.09637692e+09
 1.09637699e+09 1.09637706e+09 1.09637713e+09 1.09637720e+09
 1.09637727e+09 1.09637734e+09 1.09637741e+09 1.09637748e+09
 1.09637755e+09 1.09637762e+09 1.09637769e+09 1.09637775e+09
 1.09637782e+09 1.09637789e+09 1.09637796e+09 1.09637803e+09
 1.09637810e+09 1.09637817e+09 1.09637824e+09 1.09637831e+09
 1.09637838e+09 1.09637845e+09 1.09637852e+09 1.09637859e+09
 1.09637866e+09 1.09637873e+09 1.09637880e+09 1.09637887e+09
 1.09637894e+09 1.09637901e+09 1.09637908e+09 1.09637914e+09
 1.09637921e+09 1.09637928e+09 1.09637935e+09 1.09637942e+09
 1.09637949e+09 1.09637956e+09 1.09637963e+09 1.09637970e+09
 1.09637977e+09 1.09637984e+09 1.09637991e+09 1.09637998e+09
 1.09638005e+09 1.09638012e+09 1.09638019e+09 1.09638026e+09
 1.09638033e+09 1.09638040e+09 1.09638047e+09 1.09638054e+09
 1.09638060e+09 1.09638067e+09 1.09638074e+09 1.09638081e+09
 1.09638088e+09 1.09638095e+09 1.09638102e+09 1.09638109e+09
 1.09638116e+09 1.09638123e+09 1.09638130e+09 1.09638137e+09
 1.09638144e+09 1.09638151e+09 1.09638158e+09 1.09638165e+09
 1.09638172e+09 1.09638179e+09 1.09638186e+09 1.09638193e+09
 1.09638200e+09 1.09638206e+09 1.09638213e+09 1.09638220e+09
 1.09638227e+09 1.09638234e+09 1.09638241e+09 1.09638248e+09
 1.09638255e+09 1.09638262e+09 1.09638269e+09 1.09638276e+09
 1.09638283e+09 1.09638290e+09 1.09638297e+09 1.09638304e+09
 1.09638311e+09 1.09638318e+09 1.09638325e+09 1.09638332e+09
 1.09638339e+09 1.09638346e+09 1.09638352e+09 1.09638359e+09
 1.09638366e+09 1.09638373e+09 1.09638380e+09 1.09638387e+09
 1.09638394e+09 1.09638401e+09 1.09638408e+09 1.09638415e+09
 1.09638422e+09 1.09638429e+09 1.09638436e+09 1.09638443e+09
 1.09638450e+09 1.09638457e+09 1.09638464e+09 1.09638471e+09
 1.09638478e+09 1.09638485e+09 1.09638492e+09 1.09638498e+09
 1.09638505e+09 1.09638512e+09 1.09638519e+09 1.09638526e+09
 1.09638533e+09 1.09638540e+09 1.09638547e+09 1.09638554e+09
 1.09638561e+09 1.09638568e+09 1.09638575e+09 1.09638582e+09
 1.09638589e+09 1.09638596e+09 1.09638603e+09 1.09638610e+09
 1.09638617e+09 1.09638624e+09 1.09638631e+09 1.09638637e+09
 1.09638644e+09 1.09638651e+09 1.09638658e+09 1.09638665e+09
 1.09638672e+09 1.09638679e+09 1.09638686e+09 1.09638693e+09
 1.09638700e+09 1.09638707e+09 1.09638714e+09 1.09638721e+09
 1.09638728e+09 1.09638735e+09 1.09638742e+09 1.09638749e+09
 1.09638756e+09 1.09638763e+09 1.09638770e+09 1.09638777e+09
 1.09638783e+09 1.09638790e+09 1.09638797e+09 1.09638804e+09
 1.09638811e+09 1.09638818e+09 1.09638825e+09 1.09638832e+09
 1.09638839e+09 1.09638846e+09 1.09638853e+09 1.09638860e+09
 1.09638867e+09 1.09638874e+09 1.09638881e+09 1.09638888e+09
 1.09638895e+09 1.09638902e+09 1.09638909e+09 1.09638916e+09
 1.09638923e+09 1.09638929e+09 1.09638936e+09 1.09638943e+09
 1.09638950e+09 1.09638957e+09 1.09638964e+09 1.09638971e+09
 1.09638978e+09 1.09638985e+09 1.09638992e+09 1.09638999e+09
 1.09639006e+09 1.09639013e+09 1.09639020e+09 1.09639027e+09
 1.09639034e+09 1.09639041e+09 1.09639048e+09 1.09639055e+09
 1.09639062e+09 1.09639069e+09 1.09639075e+09 1.09639082e+09
 1.09639089e+09 1.09639096e+09 1.09639103e+09 1.09639110e+09
 1.09639117e+09 1.09639124e+09 1.09639131e+09 1.09639138e+09
 1.09639145e+09 1.09639152e+09 1.09639159e+09 1.09639166e+09
 1.09639173e+09 1.09639180e+09 1.09639187e+09 1.09639194e+09
 1.09639201e+09 1.09639208e+09 1.09639215e+09 1.09639221e+09
 1.09639228e+09 1.09639235e+09 1.09639242e+09 1.09639249e+09
 1.09639256e+09 1.09639263e+09 1.09639270e+09 1.09639277e+09
 1.09639284e+09 1.09639291e+09 1.09639298e+09 1.09639305e+09
 1.09639312e+09 1.09639319e+09 1.09639326e+09 1.09639333e+09
 1.09639340e+09 1.09639347e+09 1.09639354e+09 1.09639360e+09
 1.09639367e+09 1.09639374e+09 1.09639381e+09 1.09639388e+09
 1.09639395e+09 1.09639402e+09 1.09639409e+09 1.09639416e+09
 1.09639423e+09 1.09639430e+09 1.09639437e+09 1.09639444e+09
 1.09639451e+09 1.09639458e+09 1.09639465e+09 1.09639472e+09
 1.09639479e+09 1.09639486e+09 1.09639493e+09 1.09639500e+09
 1.09639506e+09 1.09639513e+09 1.09639520e+09 1.09639527e+09
 1.09639534e+09 1.09639541e+09 1.09639548e+09 1.09639555e+09
 1.09639562e+09 1.09639569e+09 1.09639576e+09 1.09639583e+09
 1.09639590e+09 1.09639597e+09 1.09639604e+09 1.09639611e+09
 1.09639618e+09 1.09639625e+09 1.09639632e+09 1.09639639e+09
 1.09639646e+09 1.09639652e+09 1.09639659e+09 1.09639666e+09
 1.09639673e+09 1.09639680e+09 1.09639687e+09 1.09639694e+09
 1.09639701e+09 1.09639708e+09 1.09639715e+09 1.09639722e+09
 1.09639729e+09 1.09639736e+09 1.09639743e+09 1.09639750e+09
 1.09639757e+09 1.09639764e+09 1.09639771e+09 1.09639778e+09
 1.09639785e+09 1.09639792e+09 1.09639798e+09 1.09639805e+09
 1.09639812e+09 1.09639819e+09 1.09639826e+09 1.09639833e+09
 1.09639840e+09 1.09639847e+09 1.09639854e+09 1.09639861e+09
 1.09639868e+09 1.09639875e+09 1.09639882e+09 1.09639889e+09
 1.09639896e+09 1.09639903e+09 1.09639910e+09 1.09639917e+09
 1.09639924e+09 1.09639931e+09 1.09639938e+09 1.09639944e+09
 1.09639951e+09 1.09639958e+09 1.09639965e+09 1.09639972e+09
 1.09639979e+09 1.09639986e+09 1.09639993e+09 1.09640000e+09
 1.09640007e+09 1.09640014e+09 1.09640021e+09 1.09640028e+09
 1.09640035e+09 1.09640042e+09 1.09640049e+09 1.09640056e+09
 1.09640063e+09 1.09640070e+09 1.09640077e+09 1.09640084e+09
 1.09640090e+09 1.09640097e+09 1.09640104e+09 1.09640111e+09
 1.09640118e+09 1.09640125e+09 1.09640132e+09 1.09640139e+09
 1.09640146e+09 1.09640153e+09 1.09640160e+09 1.09640167e+09
 1.09640174e+09 1.09640181e+09 1.09640188e+09 1.09640195e+09
 1.09640202e+09 1.09640209e+09 1.09640216e+09 1.09640223e+09
 1.09640229e+09 1.09640236e+09 1.09640243e+09 1.09640250e+09
 1.09640257e+09 1.09640264e+09 1.09640271e+09 1.09640278e+09
 1.09640285e+09 1.09640292e+09 1.09640299e+09 1.09640306e+09
 1.09640313e+09 1.09640320e+09 1.09640327e+09 1.09640334e+09
 1.09640341e+09 1.09640348e+09 1.09640355e+09 1.09640362e+09
 1.09640369e+09 1.09640375e+09 1.09640382e+09 1.09640389e+09
 1.09640396e+09 1.09640403e+09 1.09640410e+09 1.09640417e+09
 1.09640424e+09 1.09640431e+09 1.09640438e+09 1.09640445e+09
 1.09640452e+09 1.09640459e+09 1.09640466e+09 1.09640473e+09
 1.09640480e+09 1.09640487e+09 1.09640494e+09 1.09640501e+09
 1.09640508e+09 1.09640515e+09 1.09640521e+09 1.09640528e+09
 1.09640535e+09 1.09640542e+09 1.09640549e+09 1.09640556e+09
 1.09640563e+09 1.09640570e+09 1.09640577e+09 1.09640584e+09
 1.09640591e+09 1.09640598e+09 1.09640605e+09 1.09640612e+09
 1.09640619e+09 1.09640626e+09 1.09640633e+09 1.09640640e+09
 1.09640647e+09 1.09640654e+09 1.09640661e+09 1.09640667e+09
 1.09640674e+09 1.09640681e+09 1.09640688e+09 1.09640695e+09
 1.09640702e+09 1.09640709e+09 1.09640716e+09 1.09640723e+09
 1.09640730e+09 1.09640737e+09 1.09640744e+09 1.09640751e+09
 1.09640758e+09 1.09640765e+09 1.09640772e+09 1.09640779e+09
 1.09640786e+09 1.09640793e+09 1.09640800e+09 1.09640807e+09
 1.09640813e+09 1.09640820e+09 1.09640827e+09 1.09640834e+09
 1.09640841e+09 1.09640848e+09 1.09640855e+09 1.09640862e+09
 1.09640869e+09 1.09640876e+09 1.09640883e+09 1.09640890e+09
 1.09640897e+09 1.09640904e+09 1.09640911e+09 1.09640918e+09
 1.09640925e+09 1.09640932e+09 1.09640939e+09 1.09640946e+09
 1.09640952e+09 1.09640959e+09 1.09640966e+09 1.09640973e+09
 1.09640980e+09 1.09640987e+09 1.09640994e+09 1.09641001e+09
 1.09641008e+09 1.09641015e+09 1.09641022e+09 1.09641029e+09
