name =JUICE_ROI_GAN_7_0_08
flyby = ['2034 JUL 11 19:50:31', '2034 JUL 12 19:50:31']
Observation TW = <SpiceCell dtype = 1, length = 0, size = 2400, card = 4, is_set = 1, adjust = 0, init = 1, base = 94680046019792, data = 94680046019840>
Res(t) = [3.1348111  3.13446597 3.13412141 3.13377743 3.13343401 3.13309117
 3.1327489  3.1324072  3.13206608 3.13172552 3.13138554 3.13104612
 3.13070726 3.13036898 3.13003128 3.12969413 3.12935755 3.12902154
 3.1286861  3.12835123 3.12801691 3.12768317 3.12734999 3.12701737
 3.12668531 3.12635383 3.1260229  3.12569254 3.12536274 3.12503349
 3.12470482 3.1243767  3.12404914 3.12372214 3.12339571 3.12306983
 3.12274452 3.12241975 3.12209556 3.12177191 3.12144883 3.1211263
 3.12080432 3.1204829  3.12016204 3.11984173 3.11952199 3.11920279
 3.11888414 3.11856606 3.11824852 3.11793153 3.1176151  3.11729922
 3.11698389 3.11666912 3.11635489 3.11604122 3.11572808 3.11541551
 3.11510348 3.114792   3.11448107 3.11417069 3.11386085 3.11355156
 3.11324282 3.11293462 3.11262697 3.11231987 3.1120133  3.11170729
 3.11140182 3.11109689 3.1107925  3.11048866 3.11018536 3.10988261
 3.10958039 3.10927872 3.10897758 3.10867699 3.10837694 3.10807743
 3.10777845 3.10748002 3.10718212 3.10688476 3.10658794 3.10629166
 3.10599591 3.1057007  3.10540602 3.10511189 3.10481829 3.10452522
 3.10423268 3.10394068 3.10364922 3.10335829 3.10306789 3.10277802
 3.10248869 3.10219988 3.10191161 3.10162387 3.10133666 3.10104998
 3.10076383 3.10047821 3.10019312 3.09990855 3.09962452 3.09934101
 3.09905803 3.09877558 3.09849365 3.09821225 3.09793137 3.09765103
 3.0973712  3.0970919  3.09681313 3.09653488 3.09625715 3.09597994
 3.09570326 3.0954271  3.09515147 3.09487635 3.09460175 3.09432768
 3.09405413 3.09378109 3.09350858 3.09323658 3.09296511 3.09269415
 3.09242371 3.09215379 3.09188439 3.0916155  3.09134713 3.09107927
 3.09081193 3.09054511 3.0902788  3.09001301 3.08974773 3.08948296
 3.08921871 3.08895497 3.08869175 3.08842903 3.08816683 3.08790514
 3.08764396 3.08738329 3.08712314 3.08686349 3.08660435 3.08634572
 3.0860876  3.08582999 3.08557289 3.08531629 3.08506021 3.08480463
 3.08454956 3.08429499 3.08404092 3.08378737 3.08353432 3.08328177
 3.08302973 3.0827782  3.08252717 3.08227664 3.08202661 3.08177708
 3.08152806 3.08127954 3.08103153 3.08078401 3.08053699 3.08029048
 3.08004446 3.07979894 3.07955393 3.07930941 3.07906539 3.07882187
 3.07857885 3.07833632 3.07809429 3.07785276 3.07761172 3.07737118
 3.07713114 3.0768916  3.07665254 3.07641398 3.07617592 3.07593835
 3.07570127 3.07546468 3.07522859 3.07499299 3.07475789 3.07452327
 3.07428915 3.07405552 3.07382237 3.07358972 3.07335756 3.07312588
 3.0728947  3.072664   3.07243379 3.07220408 3.07197485 3.07174611
 3.07151785 3.07129008 3.0710628  3.070836   3.07060968 3.07038386
 3.07015852 3.06993366 3.06970929 3.0694854  3.06926199 3.06903907
 3.06881663 3.06859467 3.0683732  3.0681522  3.06793169 3.06771166
 3.06749211 3.06727304 3.06705445 3.06683634 3.0666187  3.06640155
 3.06618488 3.06596868 3.06575296 3.06553772 3.06532296 3.06510867
 3.06489486 3.06468153 3.06446867 3.06425628 3.06404438 3.06383294
 3.06362198 3.0634115  3.06320149 3.06299195 3.06278288 3.06257429
 3.06236617 3.06215852 3.06195135 3.06174464 3.06153841 3.06133265
 3.06112735 3.06092253 3.06071817 3.06051429 3.06031087 3.06010793
 3.05990545 3.05970344 3.05950189 3.05930082 3.05910021 3.05890006
 3.05870038 3.05850118 3.05830243 3.05810415 3.05790633 3.05770898
 3.0575121  3.05731567 3.05711971 3.05692421 3.05672918 3.05653461
 3.0563405  3.05614685 3.05595367 3.05576094 3.05556868 3.05537687
 3.05518553 3.05499465 3.05480422 3.05461426 3.05442475 3.0542357
 3.05404712 3.05385898 3.05367131 3.05348409 3.05329733 3.05311103
 3.05292518 3.05273979 3.05255485 3.05237037 3.05218635 3.05200277
 3.05181965 3.05163699 3.05145478 3.05127303 3.05109172 3.05091087
 3.05073047 3.05055052 3.05037102 3.05019198 3.05001339 3.04983524
 3.04965755 3.04948031 3.04930352 3.04912717 3.04895128 3.04877583
 3.04860083 3.04842629 3.04825218 3.04807853 3.04790532 3.04773256
 3.04756025 3.04738838 3.04721695 3.04704598 3.04687545 3.04670536
 3.04653571 3.04636652 3.04619776 3.04602945 3.04586158 3.04569416
 3.04552718 3.04536064 3.04519454 3.04502888 3.04486367 3.0446989
 3.04453456 3.04437067 3.04420722 3.0440442  3.04388163 3.0437195
 3.0435578  3.04339654 3.04323572 3.04307534 3.0429154  3.0427559
 3.04259683 3.04243819 3.04228    3.04212224 3.04196491 3.04180802
 3.04165157 3.04149555 3.04133997 3.04118482 3.0410301  3.04087582
 3.04072197 3.04056855 3.04041557 3.04026301 3.04011089 3.03995921
 3.03980795 3.03965712 3.03950673 3.03935676 3.03920723 3.03905813
 3.03890945 3.0387612  3.03861339 3.038466   3.03831904 3.03817251
 3.03802641 3.03788073 3.03773548 3.03759066 3.03744626 3.03730229
 3.03715875 3.03701563 3.03687294 3.03673067 3.03658883 3.03644741
 3.03630642 3.03616585 3.0360257  3.03588598 3.03574667 3.03560779
 3.03546934 3.0353313  3.03519369 3.0350565  3.03491973 3.03478338
 3.03464746 3.03451195 3.03437686 3.03424219 3.03410794 3.03397411
 3.0338407  3.03370771 3.03357514 3.03344298 3.03331124 3.03317992
 3.03304902 3.03291853 3.03278846 3.0326588  3.03252956 3.03240074
 3.03227233 3.03214434 3.03201676 3.0318896  3.03176284 3.03163651
 3.03151058 3.03138508 3.03125998 3.03113529 3.03101103 3.03088716
 3.03076372 3.03064068 3.03051806 3.03039584 3.03027404 3.03015265
 3.03003166 3.02991109 3.02979093 3.02967117 3.02955183 3.02943289
 3.02931436 3.02919624 3.02907853 3.02896123 3.02884433 3.02872784
 3.02861175 3.02849608 3.02838081 3.02826594 3.02815148 3.02803743
 3.02792377 3.02781053 3.02769769 3.02758525 3.02747322 3.02736159
 3.02725036 3.02713954 3.02702912 3.0269191  3.02680949 3.02670027
 3.02659146 3.02648305 3.02637504 3.02626743 3.02616022 3.02605341
 3.02594701 3.025841   3.02573539 3.02563018 3.02552537 3.02542096
 3.02531694 3.02521333 3.02511011 3.02500729 3.02490486 3.02480284
 3.0247012  3.02459997 3.02449914 3.02439869 3.02429864 3.024199
 3.02409974 3.02400088 3.02390241 3.02380434 3.02370666 3.02360938
 3.02351248 3.02341599 3.02331988 3.02322417 3.02312885 3.02303392
 3.02293938 3.02284524 3.02275148 3.02265812 3.02256515 3.02247257
 3.02238037 3.02228857 3.02219716 3.02210614 3.02201551 3.02192526
 3.02183541 3.02174594 3.02165686 3.02156817 3.02147986 3.02139194
 3.02130442 3.02121727 3.02113052 3.02104414 3.02095816 3.02087256
 3.02078734 3.02070252 3.02061807 3.02053402 3.02045034 3.02036705
 3.02028415 3.02020162 3.02011948 3.02003772 3.01995635 3.01987536
 3.01979475 3.01971452 3.01963468 3.01955522 3.01947613 3.01939743
 3.01931911 3.01924117 3.01916361 3.01908643 3.01900963 3.01893321
 3.01885717 3.01878151 3.01870622 3.01863131 3.01855679 3.01848264
 3.01840887 3.01833547 3.01826245 3.01818981 3.01811755 3.01804566
 3.01797415 3.01790302 3.01783226 3.01776187 3.01769186 3.01762223
 3.01755297 3.01748408 3.01741557 3.01734744 3.01727967 3.01721228
 3.01714527 3.01707862 3.01701235 3.01694645 3.01688092 3.01681577
 3.01675098 3.01668657 3.01662253 3.01655886 3.01649556 3.01643263
 3.01637007 3.01630788 3.01624607 3.01618461 3.01612353 3.01606282
 3.01600248 3.0159425  3.0158829  3.01582366 3.01576479 3.01570628
 3.01564814 3.01559037 3.01553297 3.01547593 3.01541926 3.01536296
 3.01530702 3.01525145 3.01519624 3.0151414  3.01508692 3.01503281
 3.01497906 3.01492567 3.01487265 3.01481999 3.0147677  3.01471577
 3.0146642  3.01461299 3.01456215 3.01451167 3.01446154 3.01441179
 3.01436239 3.01431335 3.01426468 3.01421637 3.01416841 3.01412082
 3.01407359 3.01402671 3.0139802  3.01393404 3.01388825 3.01384281
 3.01379773 3.01375301 3.01370865 3.01366464 3.013621   3.01357771
 3.01353477 3.0134922  3.01344998 3.01340812 3.01336661 3.01332546
 3.01328467 3.01324423 3.01320415 3.01316442 3.01312505 3.01308602
 3.01304736 3.01300905 3.01297109 3.01293349 3.01289624 3.01285935
 3.0128228  3.01278661 3.01275077 3.01271528 3.01268015 3.01264537
 3.01261094 3.01257686 3.01254313 3.01250975 3.01247673 3.01244405
 3.01241172 3.01237975 3.01234812 3.01231685 3.01228592 3.01225534
 3.01222511 3.01219523 3.0121657  3.01213652 3.01210768 3.01207919
 3.01205105 3.01202326 3.01199581 3.01196871 3.01194196 3.01191555
 3.01188949 3.01186377 3.0118384  3.01181338 3.01178871 3.01176437
 3.01174038 3.01171674 3.01169344 3.01167049 3.01164787 3.01162561
 3.01160368 3.0115821  3.01156086 3.01153997 3.01151942 3.01149921
 3.01147934 3.01145982 3.01144063 3.01142179 3.01140329 3.01138513
 3.01136731 3.01134983 3.01133269 3.0113159  3.01129944 3.01128332
 3.01126754 3.01125211 3.011237   3.01122224 3.01120782 3.01119374
 3.01117999 3.01116658 3.01115352 3.01114079 3.01112839 3.01111633
 3.01110461 3.01109323 3.01108218 3.01107147 3.0110611  3.01105106
 3.01104136 3.01103199 3.01102296 3.01101426 3.0110059  3.01099787
 3.01099018 3.01098282 3.01097579 3.01096911 3.01096275 3.01095672
 3.01095104 3.01094568 3.01094065 3.01093596 3.0109316  3.01092757
 3.01092388 3.01092051 3.01091748 3.01091478 3.01091241 3.01091037
 3.01090866 3.01090728 3.01090624 3.01090552 3.01090513 3.01090507
 3.01090534 3.01090594 3.01090687 3.01090813 3.01090972 3.01091163
 3.01091388 3.01091645 3.01091935 3.01092257 3.01092613 3.01093001
 3.01093422 3.01093875 3.01094361 3.0109488  3.01095432 3.01096016
 3.01096632 3.01097281 3.01097963 3.01098677 3.01099424 3.01100203
 3.01101015 3.01101859 3.01102736 3.01103645 3.01104586 3.01105559
 3.01106565 3.01107604 3.01108674 3.01109777 3.01110912 3.0111208
 3.01113279 3.01114511 3.01115775 3.01117071 3.01118399 3.01119759
 3.01121152 3.01122577 3.01124033 3.01125522 3.01127043 3.01128595
 3.0113018  3.01131797 3.01133445 3.01135125 3.01136838 3.01138582
 3.01140358 3.01142166 3.01144006 3.01145878 3.01147781 3.01149716
 3.01151683 3.01153682 3.01155712 3.01157774 3.01159868 3.01161993
 3.0116415  3.01166339 3.01168559 3.01170811 3.01173094 3.01175409
 3.01177755 3.01180133 3.01182543 3.01184983 3.01187456 3.01189959
 3.01192495 3.01195061 3.01197659 3.01200288 3.01202948 3.0120564
 3.01208364 3.01211118 3.01213903 3.0121672  3.01219568 3.01222448
 3.01225358 3.012283   3.01231273 3.01234276 3.01237311 3.01240377
 3.01243474 3.01246603 3.01249762 3.01252952 3.01256173 3.01259426
 3.01262709 3.01266023 3.01269368 3.01272744 3.0127615  3.01279588
 3.01283057 3.01286556 3.01290086 3.01293647 3.01297239 3.01300861
 3.01304514 3.01308198 3.01311913 3.01315658 3.01319434 3.0132324
 3.01327078 3.01330946 3.01334844 3.01338773 3.01342732 3.01346722
 3.01350743 3.01354794 3.01358876 3.01362987 3.0136713  3.01371303
 3.01375506 3.0137974  3.01384004 3.01388298 3.01392623 3.01396978
 3.01401364 3.01405779 3.01410225 3.01414701 3.01419208 3.01423744
 3.01428311 3.01432908 3.01437535 3.01442193 3.0144688  3.01451598
 3.01456345 3.01461123 3.01465931 3.01470769 3.01475637 3.01480534
 3.01485462 3.0149042  3.01495408 3.01500426 3.01505473 3.01510551
 3.01515658 3.01520795 3.01525962 3.01531159 3.01536386 3.01541642
 3.01546929 3.01552245 3.01557591 3.01562966 3.01568372 3.01573807
 3.01579271 3.01584765 3.0159029  3.01595843 3.01601426 3.01607039
 3.01612681 3.01618353 3.01624055 3.01629786 3.01635546 3.01641336
 3.01647156 3.01653005 3.01658883 3.0166479  3.01670728 3.01676694
 3.0168269  3.01688716 3.0169477  3.01700854 3.01706967 3.0171311
 3.01719282 3.01725483 3.01731713 3.01737973 3.01744262 3.01750579
 3.01756927 3.01763303 3.01769708 3.01776143]
t = [1.08958555e+09 1.08958557e+09 1.08958558e+09 1.08958560e+09
 1.08958562e+09 1.08958564e+09 1.08958565e+09 1.08958567e+09
 1.08958569e+09 1.08958570e+09 1.08958572e+09 1.08958574e+09
 1.08958576e+09 1.08958577e+09 1.08958579e+09 1.08958581e+09
 1.08958582e+09 1.08958584e+09 1.08958586e+09 1.08958588e+09
 1.08958589e+09 1.08958591e+09 1.08958593e+09 1.08958594e+09
 1.08958596e+09 1.08958598e+09 1.08958600e+09 1.08958601e+09
 1.08958603e+09 1.08958605e+09 1.08958606e+09 1.08958608e+09
 1.08958610e+09 1.08958612e+09 1.08958613e+09 1.08958615e+09
 1.08958617e+09 1.08958618e+09 1.08958620e+09 1.08958622e+09
 1.08958623e+09 1.08958625e+09 1.08958627e+09 1.08958629e+09
 1.08958630e+09 1.08958632e+09 1.08958634e+09 1.08958635e+09
 1.08958637e+09 1.08958639e+09 1.08958641e+09 1.08958642e+09
 1.08958644e+09 1.08958646e+09 1.08958647e+09 1.08958649e+09
 1.08958651e+09 1.08958653e+09 1.08958654e+09 1.08958656e+09
 1.08958658e+09 1.08958659e+09 1.08958661e+09 1.08958663e+09
 1.08958665e+09 1.08958666e+09 1.08958668e+09 1.08958670e+09
 1.08958671e+09 1.08958673e+09 1.08958675e+09 1.08958677e+09
 1.08958678e+09 1.08958680e+09 1.08958682e+09 1.08958683e+09
 1.08958685e+09 1.08958687e+09 1.08958689e+09 1.08958690e+09
 1.08958692e+09 1.08958694e+09 1.08958695e+09 1.08958697e+09
 1.08958699e+09 1.08958701e+09 1.08958702e+09 1.08958704e+09
 1.08958706e+09 1.08958707e+09 1.08958709e+09 1.08958711e+09
 1.08958712e+09 1.08958714e+09 1.08958716e+09 1.08958718e+09
 1.08958719e+09 1.08958721e+09 1.08958723e+09 1.08958724e+09
 1.08958726e+09 1.08958728e+09 1.08958730e+09 1.08958731e+09
 1.08958733e+09 1.08958735e+09 1.08958736e+09 1.08958738e+09
 1.08958740e+09 1.08958742e+09 1.08958743e+09 1.08958745e+09
 1.08958747e+09 1.08958748e+09 1.08958750e+09 1.08958752e+09
 1.08958754e+09 1.08958755e+09 1.08958757e+09 1.08958759e+09
 1.08958760e+09 1.08958762e+09 1.08958764e+09 1.08958766e+09
 1.08958767e+09 1.08958769e+09 1.08958771e+09 1.08958772e+09
 1.08958774e+09 1.08958776e+09 1.08958778e+09 1.08958779e+09
 1.08958781e+09 1.08958783e+09 1.08958784e+09 1.08958786e+09
 1.08958788e+09 1.08958790e+09 1.08958791e+09 1.08958793e+09
 1.08958795e+09 1.08958796e+09 1.08958798e+09 1.08958800e+09
 1.08958802e+09 1.08958803e+09 1.08958805e+09 1.08958807e+09
 1.08958808e+09 1.08958810e+09 1.08958812e+09 1.08958813e+09
 1.08958815e+09 1.08958817e+09 1.08958819e+09 1.08958820e+09
 1.08958822e+09 1.08958824e+09 1.08958825e+09 1.08958827e+09
 1.08958829e+09 1.08958831e+09 1.08958832e+09 1.08958834e+09
 1.08958836e+09 1.08958837e+09 1.08958839e+09 1.08958841e+09
 1.08958843e+09 1.08958844e+09 1.08958846e+09 1.08958848e+09
 1.08958849e+09 1.08958851e+09 1.08958853e+09 1.08958855e+09
 1.08958856e+09 1.08958858e+09 1.08958860e+09 1.08958861e+09
 1.08958863e+09 1.08958865e+09 1.08958867e+09 1.08958868e+09
 1.08958870e+09 1.08958872e+09 1.08958873e+09 1.08958875e+09
 1.08958877e+09 1.08958879e+09 1.08958880e+09 1.08958882e+09
 1.08958884e+09 1.08958885e+09 1.08958887e+09 1.08958889e+09
 1.08958891e+09 1.08958892e+09 1.08958894e+09 1.08958896e+09
 1.08958897e+09 1.08958899e+09 1.08958901e+09 1.08958902e+09
 1.08958904e+09 1.08958906e+09 1.08958908e+09 1.08958909e+09
 1.08958911e+09 1.08958913e+09 1.08958914e+09 1.08958916e+09
 1.08958918e+09 1.08958920e+09 1.08958921e+09 1.08958923e+09
 1.08958925e+09 1.08958926e+09 1.08958928e+09 1.08958930e+09
 1.08958932e+09 1.08958933e+09 1.08958935e+09 1.08958937e+09
 1.08958938e+09 1.08958940e+09 1.08958942e+09 1.08958944e+09
 1.08958945e+09 1.08958947e+09 1.08958949e+09 1.08958950e+09
 1.08958952e+09 1.08958954e+09 1.08958956e+09 1.08958957e+09
 1.08958959e+09 1.08958961e+09 1.08958962e+09 1.08958964e+09
 1.08958966e+09 1.08958968e+09 1.08958969e+09 1.08958971e+09
 1.08958973e+09 1.08958974e+09 1.08958976e+09 1.08958978e+09
 1.08958980e+09 1.08958981e+09 1.08958983e+09 1.08958985e+09
 1.08958986e+09 1.08958988e+09 1.08958990e+09 1.08958992e+09
 1.08958993e+09 1.08958995e+09 1.08958997e+09 1.08958998e+09
 1.08959000e+09 1.08959002e+09 1.08959003e+09 1.08959005e+09
 1.08959007e+09 1.08959009e+09 1.08959010e+09 1.08959012e+09
 1.08959014e+09 1.08959015e+09 1.08959017e+09 1.08959019e+09
 1.08959021e+09 1.08959022e+09 1.08959024e+09 1.08959026e+09
 1.08959027e+09 1.08959029e+09 1.08959031e+09 1.08959033e+09
 1.08959034e+09 1.08959036e+09 1.08959038e+09 1.08959039e+09
 1.08959041e+09 1.08959043e+09 1.08959045e+09 1.08959046e+09
 1.08959048e+09 1.08959050e+09 1.08959051e+09 1.08959053e+09
 1.08959055e+09 1.08959057e+09 1.08959058e+09 1.08959060e+09
 1.08959062e+09 1.08959063e+09 1.08959065e+09 1.08959067e+09
 1.08959069e+09 1.08959070e+09 1.08959072e+09 1.08959074e+09
 1.08959075e+09 1.08959077e+09 1.08959079e+09 1.08959081e+09
 1.08959082e+09 1.08959084e+09 1.08959086e+09 1.08959087e+09
 1.08959089e+09 1.08959091e+09 1.08959092e+09 1.08959094e+09
 1.08959096e+09 1.08959098e+09 1.08959099e+09 1.08959101e+09
 1.08959103e+09 1.08959104e+09 1.08959106e+09 1.08959108e+09
 1.08959110e+09 1.08959111e+09 1.08959113e+09 1.08959115e+09
 1.08959116e+09 1.08959118e+09 1.08959120e+09 1.08959122e+09
 1.08959123e+09 1.08959125e+09 1.08959127e+09 1.08959128e+09
 1.08959130e+09 1.08959132e+09 1.08959134e+09 1.08959135e+09
 1.08959137e+09 1.08959139e+09 1.08959140e+09 1.08959142e+09
 1.08959144e+09 1.08959146e+09 1.08959147e+09 1.08959149e+09
 1.08959151e+09 1.08959152e+09 1.08959154e+09 1.08959156e+09
 1.08959158e+09 1.08959159e+09 1.08959161e+09 1.08959163e+09
 1.08959164e+09 1.08959166e+09 1.08959168e+09 1.08959170e+09
 1.08959171e+09 1.08959173e+09 1.08959175e+09 1.08959176e+09
 1.08959178e+09 1.08959180e+09 1.08959182e+09 1.08959183e+09
 1.08959185e+09 1.08959187e+09 1.08959188e+09 1.08959190e+09
 1.08959192e+09 1.08959193e+09 1.08959195e+09 1.08959197e+09
 1.08959199e+09 1.08959200e+09 1.08959202e+09 1.08959204e+09
 1.08959205e+09 1.08959207e+09 1.08959209e+09 1.08959211e+09
 1.08959212e+09 1.08959214e+09 1.08959216e+09 1.08959217e+09
 1.08959219e+09 1.08959221e+09 1.08959223e+09 1.08959224e+09
 1.08959226e+09 1.08959228e+09 1.08959229e+09 1.08959231e+09
 1.08959233e+09 1.08959235e+09 1.08959236e+09 1.08959238e+09
 1.08959240e+09 1.08959241e+09 1.08959243e+09 1.08959245e+09
 1.08959247e+09 1.08959248e+09 1.08959250e+09 1.08959252e+09
 1.08959253e+09 1.08959255e+09 1.08959257e+09 1.08959259e+09
 1.08959260e+09 1.08959262e+09 1.08959264e+09 1.08959265e+09
 1.08959267e+09 1.08959269e+09 1.08959271e+09 1.08959272e+09
 1.08959274e+09 1.08959276e+09 1.08959277e+09 1.08959279e+09
 1.08959281e+09 1.08959282e+09 1.08959284e+09 1.08959286e+09
 1.08959288e+09 1.08959289e+09 1.08959291e+09 1.08959293e+09
 1.08959294e+09 1.08959296e+09 1.08959298e+09 1.08959300e+09
 1.08959301e+09 1.08959303e+09 1.08959305e+09 1.08959306e+09
 1.08959308e+09 1.08959310e+09 1.08959312e+09 1.08959313e+09
 1.08959315e+09 1.08959317e+09 1.08959318e+09 1.08959320e+09
 1.08959322e+09 1.08959324e+09 1.08959325e+09 1.08959327e+09
 1.08959329e+09 1.08959330e+09 1.08959332e+09 1.08959334e+09
 1.08959336e+09 1.08959337e+09 1.08959339e+09 1.08959341e+09
 1.08959342e+09 1.08959344e+09 1.08959346e+09 1.08959348e+09
 1.08959349e+09 1.08959351e+09 1.08959353e+09 1.08959354e+09
 1.08959356e+09 1.08959358e+09 1.08959360e+09 1.08959361e+09
 1.08959363e+09 1.08959365e+09 1.08959366e+09 1.08959368e+09
 1.08959370e+09 1.08959372e+09 1.08959373e+09 1.08959375e+09
 1.08959377e+09 1.08959378e+09 1.08959380e+09 1.08959382e+09
 1.08959383e+09 1.08959385e+09 1.08959387e+09 1.08959389e+09
 1.08959390e+09 1.08959392e+09 1.08959394e+09 1.08959395e+09
 1.08959397e+09 1.08959399e+09 1.08959401e+09 1.08959402e+09
 1.08959404e+09 1.08959406e+09 1.08959407e+09 1.08959409e+09
 1.08959411e+09 1.08959413e+09 1.08959414e+09 1.08959416e+09
 1.08959418e+09 1.08959419e+09 1.08959421e+09 1.08959423e+09
 1.08959425e+09 1.08959426e+09 1.08959428e+09 1.08959430e+09
 1.08959431e+09 1.08959433e+09 1.08959435e+09 1.08959437e+09
 1.08959438e+09 1.08959440e+09 1.08959442e+09 1.08959443e+09
 1.08959445e+09 1.08959447e+09 1.08959449e+09 1.08959450e+09
 1.08959452e+09 1.08959454e+09 1.08959455e+09 1.08959457e+09
 1.08959459e+09 1.08959461e+09 1.08959462e+09 1.08959464e+09
 1.08959466e+09 1.08959467e+09 1.08959469e+09 1.08959471e+09
 1.08959472e+09 1.08959474e+09 1.08959476e+09 1.08959478e+09
 1.08959479e+09 1.08959481e+09 1.08959483e+09 1.08959484e+09
 1.08959486e+09 1.08959488e+09 1.08959490e+09 1.08959491e+09
 1.08959493e+09 1.08959495e+09 1.08959496e+09 1.08959498e+09
 1.08959500e+09 1.08959502e+09 1.08959503e+09 1.08959505e+09
 1.08959507e+09 1.08959508e+09 1.08959510e+09 1.08959512e+09
