name =JUICE_ROI_GAN_6_3_12
flyby = ['2034 SEP 28 18:48:51', '2034 SEP 29 18:48:51']
Observation TW = <SpiceCell dtype = 1, length = 0, size = 3200, card = 12, is_set = 1, adjust = 0, init = 1, base = 94117971260640, data = 94117971260688>
Res(t) = [1.17988924 1.18012961 1.18037038 1.18061153 1.18085308 1.18109502
 1.18133734 1.18158006 1.18182316 1.18206665 1.18231053 1.1825548
 1.18279945 1.18304448 1.1832899  1.1835357  1.18378188 1.18402844
 1.18427539 1.18452271 1.18477042 1.1850185  1.18526696 1.18551579
 1.185765   1.18601459 1.18626455 1.18651489 1.1867656  1.18701668
 1.18726813 1.18751995 1.18777215 1.18802471 1.18827764 1.18853094
 1.1887846  1.18903863 1.18929303 1.18954779 1.18980291 1.1900584
 1.19031425 1.19057046 1.19082703 1.19108397 1.19134126 1.19159891
 1.19185691 1.19211528 1.192374   1.19263307 1.1928925  1.19315229
 1.19341242 1.19367291 1.19393375 1.19419494 1.19445648 1.19471837
 1.19498061 1.1952432  1.19550613 1.19576941 1.19603303 1.196297
 1.19656131 1.19682597 1.19709096 1.1973563  1.19762198 1.197888
 1.19815436 1.19842105 1.19868808 1.19895545 1.19922316 1.1994912
 1.19975958 1.20002829 1.20029733 1.2005667  1.20083641 1.20110644
 1.20137681 1.2016475  1.20191852 1.20218987 1.20246155 1.20273355
 1.20300588 1.20327853 1.2035515  1.2038248  1.20409842 1.20437236
 1.20464662 1.2049212  1.20519609 1.20547131 1.20574684 1.20602269
 1.20629886 1.20657534 1.20685213 1.20712924 1.20740666 1.20768439
 1.20796243 1.20824079 1.20851945 1.20879842 1.2090777  1.20935728
 1.20963717 1.20991737 1.21019787 1.21047868 1.21075978 1.2110412
 1.21132291 1.21160492 1.21188723 1.21216984 1.21245275 1.21273596
 1.21301947 1.21330327 1.21358736 1.21387175 1.21415643 1.21444141
 1.21472668 1.21501224 1.21529809 1.21558423 1.21587066 1.21615737
 1.21644438 1.21673167 1.21701924 1.2173071  1.21759525 1.21788368
 1.21817239 1.21846138 1.21875066 1.21904021 1.21933005 1.21962016
 1.21991055 1.22020122 1.22049216 1.22078338 1.22107487 1.22136664
 1.22165868 1.221951   1.22224358 1.22253644 1.22282956 1.22312296
 1.22341662 1.22371055 1.22400475 1.22429921 1.22459394 1.22488894
 1.2251842  1.22547972 1.2257755  1.22607154 1.22636785 1.22666441
 1.22696124 1.22725832 1.22755566 1.22785325 1.2281511  1.22844921
 1.22874757 1.22904619 1.22934505 1.22964417 1.22994354 1.23024316
 1.23054303 1.23084315 1.23114352 1.23144413 1.23174499 1.2320461
 1.23234745 1.23264905 1.23295088 1.23325296 1.23355529 1.23385785
 1.23416065 1.2344637  1.23476698 1.2350705  1.23537426 1.23567825
 1.23598248 1.23628694 1.23659164 1.23689657 1.23720173 1.23750712
 1.23781275 1.2381186  1.23842468 1.238731   1.23903753 1.2393443
 1.23965129 1.23995851 1.24026595 1.24057362 1.24088151 1.24118962
 1.24149795 1.2418065  1.24211528 1.24242427 1.24273348 1.24304291
 1.24335255 1.24366241 1.24397249 1.24428278 1.24459328 1.244904
 1.24521492 1.24552606 1.24583741 1.24614897 1.24646074 1.24677272
 1.2470849  1.24739729 1.24770989 1.24802269 1.2483357  1.24864891
 1.24896232 1.24927593 1.24958975 1.24990376 1.25021798 1.25053239
 1.250847   1.25116181 1.25147682 1.25179202 1.25210742 1.25242301
 1.25273879 1.25305477 1.25337094 1.25368729 1.25400384 1.25432058
 1.25463751 1.25495463 1.25527193 1.25558942 1.2559071  1.25622496
 1.256543   1.25686123 1.25717964 1.25749824 1.25781701 1.25813597
 1.2584551  1.25877441 1.2590939  1.25941357 1.25973342 1.26005344
 1.26037363 1.260694   1.26101455 1.26133526 1.26165615 1.26197721
 1.26229844 1.26261984 1.2629414  1.26326314 1.26358504 1.26390711
 1.26422935 1.26455175 1.26487431 1.26519704 1.26551994 1.26584299
 1.2661662  1.26648958 1.26681311 1.26713681 1.26746066 1.26778467
 1.26810884 1.26843316 1.26875764 1.26908227 1.26940706 1.269732
 1.27005709 1.27038233 1.27070772 1.27103327 1.27135896 1.2716848
 1.27201079 1.27233693 1.27266321 1.27298964 1.27331621 1.27364292
 1.27396978 1.27429678 1.27462393 1.27495121 1.27527864 1.2756062
 1.2759339  1.27626175 1.27658972 1.27691784 1.27724609 1.27757447
 1.27790299 1.27823165 1.27856043 1.27888935 1.2792184  1.27954758
 1.27987689 1.28020633 1.2805359  1.28086559 1.28119541 1.28152536
 1.28185543 1.28218563 1.28251595 1.2828464  1.28317697 1.28350765
 1.28383846 1.2841694  1.28450044 1.28483161 1.2851629  1.2854943
 1.28582582 1.28615746 1.28648921 1.28682108 1.28715306 1.28748515
 1.28781735 1.28814967 1.2884821  1.28881463 1.28914728 1.28948004
 1.2898129  1.29014587 1.29047894 1.29081213 1.29114541 1.2914788
 1.2918123  1.2921459  1.2924796  1.2928134  1.2931473  1.2934813
 1.2938154  1.2941496  1.2944839  1.29481829 1.29515278 1.29548736
 1.29582205 1.29615682 1.29649169 1.29682665 1.2971617  1.29749685
 1.29783208 1.29816741 1.29850282 1.29883832 1.29917391 1.29950959
 1.29984536 1.3001812  1.30051714 1.30085316 1.30118926 1.30152544
 1.30186171 1.30219806 1.30253449 1.302871   1.30320759 1.30354425
 1.303881   1.30421782 1.30455472 1.3048917  1.30522875 1.30556587
 1.30590307 1.30624034 1.30657768 1.3069151  1.30725258 1.30759014
 1.30792776 1.30826546 1.30860322 1.30894105 1.30927895 1.30961691
 1.30995494 1.31029303 1.31063119 1.31096941 1.3113077  1.31164604
 1.31198445 1.31232291 1.31266144 1.31300003 1.31333867 1.31367738
 1.31401614 1.31435495 1.31469382 1.31503275 1.31537173 1.31571077
 1.31604986 1.316389   1.31672819 1.31706744 1.31740673 1.31774607
 1.31808547 1.31842491 1.3187644  1.31910394 1.31944352 1.31978315
 1.32012282 1.32046254 1.3208023  1.32114211 1.32148195 1.32182184
 1.32216177 1.32250174 1.32284175 1.3231818  1.32352189 1.32386201
 1.32420218 1.32454237 1.32488261 1.32522288 1.32556318 1.32590352
 1.32624389 1.32658429 1.32692473 1.3272652  1.32760569 1.32794622
 1.32828677 1.32862736 1.32896797 1.32930861 1.32964928 1.32998997
 1.33033069 1.33067143 1.3310122  1.33135298 1.3316938  1.33203463
 1.33237549 1.33271636 1.33305726 1.33339818 1.33373911 1.33408006
 1.33442104 1.33476202 1.33510303 1.33544405 1.33578508 1.33612613
 1.33646719 1.33680827 1.33714936 1.33749046 1.33783157 1.33817269
 1.33851383 1.33885497 1.33919612 1.33953728 1.33987844 1.34021962
 1.3405608  1.34090198 1.34124317 1.34158437 1.34192556 1.34226677
 1.34260797 1.34294917 1.34329038 1.34363159 1.3439728  1.344314
 1.34465521 1.34499641 1.34533761 1.34567881 1.34602001 1.3463612
 1.34670238 1.34704356 1.34738474 1.34772591 1.34806707 1.34840822
 1.34874936 1.3490905  1.34943162 1.34977274 1.35011384 1.35045493
 1.35079601 1.35113708 1.35147813 1.35181917 1.3521602  1.35250121
 1.3528422  1.35318318 1.35352414 1.35386509 1.35420601 1.35454692
 1.35488781 1.35522868 1.35556952 1.35591035 1.35625115 1.35659194
 1.3569327  1.35727343 1.35761415 1.35795483 1.3582955  1.35863613
 1.35897674 1.35931733 1.35965789 1.35999841 1.36033891 1.36067938
 1.36101983 1.36136024 1.36170062 1.36204096 1.36238128 1.36272156
 1.36306181 1.36340203 1.36374221 1.36408236 1.36442247 1.36476255
 1.36510259 1.36544259 1.36578255 1.36612248 1.36646237 1.36680221
 1.36714202 1.36748179 1.36782152 1.3681612  1.36850084 1.36884044
 1.36918    1.36951951 1.36985898 1.3701984  1.37053778 1.37087711
 1.3712164  1.37155563 1.37189482 1.37223397 1.37257306 1.3729121
 1.37325109 1.37359004 1.37392893 1.37426777 1.37460656 1.37494529
 1.37528398 1.37562261 1.37596118 1.3762997  1.37663817 1.37697657
 1.37731493 1.37765322 1.37799146 1.37832964 1.37866776 1.37900582
 1.37934383 1.37968177 1.38001965 1.38035747 1.38069523 1.38103293
 1.38137057 1.38170814 1.38204564 1.38238309 1.38272047 1.38305778
 1.38339503 1.38373221 1.38406932 1.38440637 1.38474335 1.38508026
 1.3854171  1.38575387 1.38609057 1.38642721 1.38676377 1.38710026
 1.38743667 1.38777302 1.38810929 1.38844549 1.38878161 1.38911766
 1.38945364 1.38978954 1.39012536 1.39046111 1.39079678 1.39113237
 1.39146788 1.39180332 1.39213867 1.39247395 1.39280915 1.39314427
 1.3934793  1.39381426 1.39414913 1.39448392 1.39481863 1.39515325
 1.39548779 1.39582225 1.39615662 1.3964909  1.3968251  1.39715921
 1.39749324 1.39782718 1.39816103 1.3984948  1.39882847 1.39916206
 1.39949555 1.39982896 1.40016227 1.4004955  1.40082863 1.40116167
 1.40149462 1.40182747 1.40216023 1.4024929  1.40282548 1.40315795
 1.40349034 1.40382263 1.40415482 1.40448691 1.40481891 1.40515081
 1.40548261 1.40581432 1.40614592 1.40647743 1.40680883 1.40714014
 1.40747134 1.40780245 1.40813345 1.40846435 1.40879514 1.40912584
 1.40945643 1.40978692 1.4101173  1.41044758 1.41077775 1.41110782
 1.41143778 1.41176763 1.41209738 1.41242702 1.41275655 1.41308597
 1.41341529 1.41374449 1.41407359 1.41440258 1.41473145 1.41506022
 1.41538887 1.41571741 1.41604584 1.41637416 1.41670236 1.41703045
 1.41735843 1.41768629 1.41801404 1.41834167 1.41866919 1.41899659
 1.41932387 1.41965104 1.41997809 1.42030502 1.42063184 1.42095853
 1.42128511 1.42161157 1.42193791 1.42226412 1.42259022 1.4229162
 1.42324205 1.42356779 1.4238934  1.42421889 1.42454425 1.42486949
 1.42519461 1.42551961 1.42584448 1.42616922 1.42649384 1.42681833
 1.4271427  1.42746694 1.42779106 1.42811504 1.4284389  1.42876263
 1.42908623 1.42940971 1.42973305 1.43005626 1.43037935 1.4307023
 1.43102512 1.43134781 1.43167037 1.4319928  1.4323151  1.43263726
 1.43295929 1.43328118 1.43360295 1.43392457 1.43424607 1.43456742
 1.43488865 1.43520973 1.43553068 1.4358515  1.43617218 1.43649271
 1.43681312 1.43713338 1.43745351 1.43777349 1.43809334 1.43841305
 1.43873262 1.43905205 1.43937134 1.43969048 1.44000949 1.44032835
 1.44064707 1.44096565 1.44128409 1.44160238 1.44192053 1.44223854
 1.4425564  1.44287412 1.4431917  1.44350912 1.44382641 1.44414354
 1.44446053 1.44477738 1.44509407 1.44541062 1.44572703 1.44604328
 1.44635939 1.44667534 1.44699115 1.44730681 1.44762232 1.44793768
 1.44825289 1.44856795 1.44888286 1.44919762 1.44951222 1.44982667
 1.45014097 1.45045512 1.45076912 1.45108296 1.45139665 1.45171018
 1.45202356 1.45233679 1.45264986 1.45296277 1.45327553 1.45358814
 1.45390059 1.45421288 1.45452501 1.45483699 1.45514881 1.45546047
 1.45577198 1.45608332 1.45639451 1.45670554 1.45701641 1.45732712
 1.45763767 1.45794806 1.45825829 1.45856835 1.45887826 1.45918801
 1.45949759 1.45980701 1.46011627 1.46042537 1.4607343  1.46104307
 1.46135168 1.46166012 1.4619684  1.46227652 1.46258447 1.46289225
 1.46319987 1.46350733 1.46381462 1.46412174 1.46442869 1.46473548
 1.46504211 1.46534856 1.46565485 1.46596097 1.46626692 1.4665727
 1.46687832 1.46718376 1.46748904 1.46779414 1.46809908 1.46840385
 1.46870844 1.46901287 1.46931712 1.46962121 1.46992512 1.47022886
 1.47053243 1.47083582 1.47113904 1.4714421  1.47174497 1.47204768
 1.47235021 1.47265256 1.47295475 1.47325676 1.47355859 1.47386025
 1.47416173 1.47446304 1.47476417 1.47506513 1.47536591 1.47566651
 1.47596694 1.47626719 1.47656726 1.47686716 1.47716688 1.47746642
 1.47776578 1.47806496 1.47836397 1.4786628  1.47896144 1.47925991
 1.4795582  1.47985631 1.48015423 1.48045198 1.48074955 1.48104693
 1.48134414 1.48164116 1.481938   1.48223466 1.48253114 1.48282744
 1.48312355 1.48341948 1.48371523 1.4840108  1.48430618 1.48460137
 1.48489639 1.48519122 1.48548586 1.48578032 1.4860746  1.48636869
 1.4866626  1.48695632 1.48724985 1.4875432  1.48783637 1.48812934
 1.48842213 1.48871474 1.48900715 1.48929938 1.48959142 1.48988328
 1.49017495 1.49046642 1.49075771 1.49104882 1.49133973 1.49163045
 1.49192099 1.49221134 1.49250149 1.49279146 1.49308124 1.49337083
 1.49366022 1.49394943 1.49423845 1.49452727]
t = [1.09640535e+09 1.09640539e+09 1.09640542e+09 1.09640546e+09
 1.09640549e+09 1.09640553e+09 1.09640556e+09 1.09640560e+09
 1.09640563e+09 1.09640567e+09 1.09640570e+09 1.09640574e+09
 1.09640577e+09 1.09640581e+09 1.09640584e+09 1.09640588e+09
 1.09640591e+09 1.09640595e+09 1.09640599e+09 1.09640602e+09
 1.09640606e+09 1.09640609e+09 1.09640613e+09 1.09640616e+09
 1.09640620e+09 1.09640623e+09 1.09640627e+09 1.09640630e+09
 1.09640634e+09 1.09640637e+09 1.09640641e+09 1.09640644e+09
 1.09640648e+09 1.09640651e+09 1.09640655e+09 1.09640659e+09
 1.09640662e+09 1.09640666e+09 1.09640669e+09 1.09640673e+09
 1.09640676e+09 1.09640680e+09 1.09640683e+09 1.09640687e+09
 1.09640690e+09 1.09640694e+09 1.09640697e+09 1.09640701e+09
 1.09640704e+09 1.09640708e+09 1.09640711e+09 1.09640715e+09
 1.09640719e+09 1.09640722e+09 1.09640726e+09 1.09640729e+09
 1.09640733e+09 1.09640736e+09 1.09640740e+09 1.09640743e+09
 1.09640747e+09 1.09640750e+09 1.09640754e+09 1.09640757e+09
 1.09640761e+09 1.09640764e+09 1.09640768e+09 1.09640771e+09
 1.09640775e+09 1.09640778e+09 1.09640782e+09 1.09640786e+09
 1.09640789e+09 1.09640793e+09 1.09640796e+09 1.09640800e+09
 1.09640803e+09 1.09640807e+09 1.09640810e+09 1.09640814e+09
 1.09640817e+09 1.09640821e+09 1.09640824e+09 1.09640828e+09
 1.09640831e+09 1.09640835e+09 1.09640838e+09 1.09640842e+09
 1.09640846e+09 1.09640849e+09 1.09640853e+09 1.09640856e+09
 1.09640860e+09 1.09640863e+09 1.09640867e+09 1.09640870e+09
 1.09640874e+09 1.09640877e+09 1.09640881e+09 1.09640884e+09
 1.09640888e+09 1.09640891e+09 1.09640895e+09 1.09640898e+09
 1.09640902e+09 1.09640906e+09 1.09640909e+09 1.09640913e+09
 1.09640916e+09 1.09640920e+09 1.09640923e+09 1.09640927e+09
 1.09640930e+09 1.09640934e+09 1.09640937e+09 1.09640941e+09
 1.09640944e+09 1.09640948e+09 1.09640951e+09 1.09640955e+09
 1.09640958e+09 1.09640962e+09 1.09640965e+09 1.09640969e+09
 1.09640973e+09 1.09640976e+09 1.09640980e+09 1.09640983e+09
 1.09640987e+09 1.09640990e+09 1.09640994e+09 1.09640997e+09
 1.09641001e+09 1.09641004e+09 1.09641008e+09 1.09641011e+09
 1.09641015e+09 1.09641018e+09 1.09641022e+09 1.09641025e+09
 1.09641029e+09 1.09641033e+09 1.09641036e+09 1.09641040e+09
 1.09641043e+09 1.09641047e+09 1.09641050e+09 1.09641054e+09
 1.09641057e+09 1.09641061e+09 1.09641064e+09 1.09641068e+09
 1.09641071e+09 1.09641075e+09 1.09641078e+09 1.09641082e+09
 1.09641085e+09 1.09641089e+09 1.09641093e+09 1.09641096e+09
 1.09641100e+09 1.09641103e+09 1.09641107e+09 1.09641110e+09
 1.09641114e+09 1.09641117e+09 1.09641121e+09 1.09641124e+09
 1.09641128e+09 1.09641131e+09 1.09641135e+09 1.09641138e+09
 1.09641142e+09 1.09641145e+09 1.09641149e+09 1.09641153e+09
 1.09641156e+09 1.09641160e+09 1.09641163e+09 1.09641167e+09
 1.09641170e+09 1.09641174e+09 1.09641177e+09 1.09641181e+09
 1.09641184e+09 1.09641188e+09 1.09641191e+09 1.09641195e+09
 1.09641198e+09 1.09641202e+09 1.09641205e+09 1.09641209e+09
 1.09641212e+09 1.09641216e+09 1.09641220e+09 1.09641223e+09
 1.09641227e+09 1.09641230e+09 1.09641234e+09 1.09641237e+09
 1.09641241e+09 1.09641244e+09 1.09641248e+09 1.09641251e+09
 1.09641255e+09 1.09641258e+09 1.09641262e+09 1.09641265e+09
 1.09641269e+09 1.09641272e+09 1.09641276e+09 1.09641280e+09
 1.09641283e+09 1.09641287e+09 1.09641290e+09 1.09641294e+09
 1.09641297e+09 1.09641301e+09 1.09641304e+09 1.09641308e+09
 1.09641311e+09 1.09641315e+09 1.09641318e+09 1.09641322e+09
 1.09641325e+09 1.09641329e+09 1.09641332e+09 1.09641336e+09
 1.09641340e+09 1.09641343e+09 1.09641347e+09 1.09641350e+09
 1.09641354e+09 1.09641357e+09 1.09641361e+09 1.09641364e+09
 1.09641368e+09 1.09641371e+09 1.09641375e+09 1.09641378e+09
 1.09641382e+09 1.09641385e+09 1.09641389e+09 1.09641392e+09
 1.09641396e+09 1.09641400e+09 1.09641403e+09 1.09641407e+09
 1.09641410e+09 1.09641414e+09 1.09641417e+09 1.09641421e+09
 1.09641424e+09 1.09641428e+09 1.09641431e+09 1.09641435e+09
 1.09641438e+09 1.09641442e+09 1.09641445e+09 1.09641449e+09
 1.09641452e+09 1.09641456e+09 1.09641459e+09 1.09641463e+09
 1.09641467e+09 1.09641470e+09 1.09641474e+09 1.09641477e+09
 1.09641481e+09 1.09641484e+09 1.09641488e+09 1.09641491e+09
 1.09641495e+09 1.09641498e+09 1.09641502e+09 1.09641505e+09
 1.09641509e+09 1.09641512e+09 1.09641516e+09 1.09641519e+09
 1.09641523e+09 1.09641527e+09 1.09641530e+09 1.09641534e+09
 1.09641537e+09 1.09641541e+09 1.09641544e+09 1.09641548e+09
 1.09641551e+09 1.09641555e+09 1.09641558e+09 1.09641562e+09
 1.09641565e+09 1.09641569e+09 1.09641572e+09 1.09641576e+09
 1.09641579e+09 1.09641583e+09 1.09641587e+09 1.09641590e+09
 1.09641594e+09 1.09641597e+09 1.09641601e+09 1.09641604e+09
 1.09641608e+09 1.09641611e+09 1.09641615e+09 1.09641618e+09
 1.09641622e+09 1.09641625e+09 1.09641629e+09 1.09641632e+09
 1.09641636e+09 1.09641639e+09 1.09641643e+09 1.09641647e+09
 1.09641650e+09 1.09641654e+09 1.09641657e+09 1.09641661e+09
 1.09641664e+09 1.09641668e+09 1.09641671e+09 1.09641675e+09
 1.09641678e+09 1.09641682e+09 1.09641685e+09 1.09641689e+09
 1.09641692e+09 1.09641696e+09 1.09641699e+09 1.09641703e+09
 1.09641706e+09 1.09641710e+09 1.09641714e+09 1.09641717e+09
 1.09641721e+09 1.09641724e+09 1.09641728e+09 1.09641731e+09
 1.09641735e+09 1.09641738e+09 1.09641742e+09 1.09641745e+09
 1.09641749e+09 1.09641752e+09 1.09641756e+09 1.09641759e+09
 1.09641763e+09 1.09641766e+09 1.09641770e+09 1.09641774e+09
 1.09641777e+09 1.09641781e+09 1.09641784e+09 1.09641788e+09
 1.09641791e+09 1.09641795e+09 1.09641798e+09 1.09641802e+09
 1.09641805e+09 1.09641809e+09 1.09641812e+09 1.09641816e+09
 1.09641819e+09 1.09641823e+09 1.09641826e+09 1.09641830e+09
 1.09641834e+09 1.09641837e+09 1.09641841e+09 1.09641844e+09
 1.09641848e+09 1.09641851e+09 1.09641855e+09 1.09641858e+09
 1.09641862e+09 1.09641865e+09 1.09641869e+09 1.09641872e+09
 1.09641876e+09 1.09641879e+09 1.09641883e+09 1.09641886e+09
 1.09641890e+09 1.09641894e+09 1.09641897e+09 1.09641901e+09
 1.09641904e+09 1.09641908e+09 1.09641911e+09 1.09641915e+09
 1.09641918e+09 1.09641922e+09 1.09641925e+09 1.09641929e+09
 1.09641932e+09 1.09641936e+09 1.09641939e+09 1.09641943e+09
 1.09641946e+09 1.09641950e+09 1.09641953e+09 1.09641957e+09
 1.09641961e+09 1.09641964e+09 1.09641968e+09 1.09641971e+09
 1.09641975e+09 1.09641978e+09 1.09641982e+09 1.09641985e+09
 1.09641989e+09 1.09641992e+09 1.09641996e+09 1.09641999e+09
 1.09642003e+09 1.09642006e+09 1.09642010e+09 1.09642013e+09
 1.09642017e+09 1.09642021e+09 1.09642024e+09 1.09642028e+09
 1.09642031e+09 1.09642035e+09 1.09642038e+09 1.09642042e+09
 1.09642045e+09 1.09642049e+09 1.09642052e+09 1.09642056e+09
 1.09642059e+09 1.09642063e+09 1.09642066e+09 1.09642070e+09
 1.09642073e+09 1.09642077e+09 1.09642081e+09 1.09642084e+09
 1.09642088e+09 1.09642091e+09 1.09642095e+09 1.09642098e+09
 1.09642102e+09 1.09642105e+09 1.09642109e+09 1.09642112e+09
 1.09642116e+09 1.09642119e+09 1.09642123e+09 1.09642126e+09
 1.09642130e+09 1.09642133e+09 1.09642137e+09 1.09642140e+09
 1.09642144e+09 1.09642148e+09 1.09642151e+09 1.09642155e+09
 1.09642158e+09 1.09642162e+09 1.09642165e+09 1.09642169e+09
 1.09642172e+09 1.09642176e+09 1.09642179e+09 1.09642183e+09
 1.09642186e+09 1.09642190e+09 1.09642193e+09 1.09642197e+09
 1.09642200e+09 1.09642204e+09 1.09642208e+09 1.09642211e+09
 1.09642215e+09 1.09642218e+09 1.09642222e+09 1.09642225e+09
 1.09642229e+09 1.09642232e+09 1.09642236e+09 1.09642239e+09
 1.09642243e+09 1.09642246e+09 1.09642250e+09 1.09642253e+09
 1.09642257e+09 1.09642260e+09 1.09642264e+09 1.09642268e+09
 1.09642271e+09 1.09642275e+09 1.09642278e+09 1.09642282e+09
 1.09642285e+09 1.09642289e+09 1.09642292e+09 1.09642296e+09
 1.09642299e+09 1.09642303e+09 1.09642306e+09 1.09642310e+09
 1.09642313e+09 1.09642317e+09 1.09642320e+09 1.09642324e+09
 1.09642328e+09 1.09642331e+09 1.09642335e+09 1.09642338e+09
 1.09642342e+09 1.09642345e+09 1.09642349e+09 1.09642352e+09
 1.09642356e+09 1.09642359e+09 1.09642363e+09 1.09642366e+09
 1.09642370e+09 1.09642373e+09 1.09642377e+09 1.09642380e+09
 1.09642384e+09 1.09642387e+09 1.09642391e+09 1.09642395e+09
 1.09642398e+09 1.09642402e+09 1.09642405e+09 1.09642409e+09
 1.09642412e+09 1.09642416e+09 1.09642419e+09 1.09642423e+09
 1.09642426e+09 1.09642430e+09 1.09642433e+09 1.09642437e+09
 1.09642440e+09 1.09642444e+09 1.09642447e+09 1.09642451e+09
 1.09642455e+09 1.09642458e+09 1.09642462e+09 1.09642465e+09
 1.09642469e+09 1.09642472e+09 1.09642476e+09 1.09642479e+09
 1.09642483e+09 1.09642486e+09 1.09642490e+09 1.09642493e+09
 1.09642497e+09 1.09642500e+09 1.09642504e+09 1.09642507e+09
 1.09642511e+09 1.09642515e+09 1.09642518e+09 1.09642522e+09
