name =JUICE_ROI_GAN_2_0_16
flyby = ['2034 SEP 28 18:48:51', '2034 SEP 29 18:48:51']
Observation TW = <SpiceCell dtype = 1, length = 0, size = 3400, card = 14, is_set = 1, adjust = 0, init = 1, base = 94383695967184, data = 94383695967232>
Res(t) = [1.20437059 1.20337204 1.20237614 1.2013829  1.20039233 1.19940442
 1.19841918 1.19743661 1.19645671 1.19547948 1.19450492 1.19353303
 1.19256382 1.19159729 1.19063344 1.18967227 1.18871378 1.18775797
 1.18680485 1.18585441 1.18490666 1.1839616  1.18301923 1.18207956
 1.18114257 1.18020829 1.1792767  1.1783478  1.17742161 1.17649812
 1.17557732 1.17465924 1.17374386 1.17283118 1.17192121 1.17101395
 1.1701094  1.16920757 1.16830844 1.16741204 1.16651834 1.16562737
 1.16473911 1.16385357 1.16297075 1.16209066 1.16121329 1.16033864
 1.15946673 1.15859753 1.15773107 1.15686734 1.15600633 1.15514806
 1.15429253 1.15343973 1.15258966 1.15174233 1.15089774 1.15005589
 1.14921678 1.14838041 1.14754678 1.1467159  1.14588777 1.14506238
 1.14423973 1.14341984 1.14260269 1.1417883  1.14097665 1.14016776
 1.13936162 1.13855824 1.13775761 1.13695974 1.13616463 1.13537227
 1.13458268 1.13379584 1.13301177 1.13223046 1.13145191 1.13067613
 1.12990311 1.12913286 1.12836537 1.12760065 1.1268387  1.12607952
 1.12532311 1.12456948 1.12381861 1.12307051 1.12232519 1.12158264
 1.12084287 1.12010588 1.11937166 1.11864021 1.11791155 1.11718566
 1.11646255 1.11574222 1.11502468 1.11430991 1.11359793 1.11288872
 1.1121823  1.11147867 1.11077782 1.11007975 1.10938447 1.10869197
 1.10800226 1.10731534 1.10663121 1.10594986 1.1052713  1.10459553
 1.10392255 1.10325235 1.10258495 1.10192034 1.10125852 1.10059949
 1.09994325 1.09928981 1.09863915 1.09799129 1.09734622 1.09670395
 1.09606447 1.09542778 1.09479388 1.09416278 1.09353448 1.09290896
 1.09228625 1.09166633 1.0910492  1.09043487 1.08982333 1.08921459
 1.08860864 1.08800549 1.08740514 1.08680758 1.08621282 1.08562085
 1.08503168 1.0844453  1.08386172 1.08328094 1.08270295 1.08212776
 1.08155536 1.08098576 1.08041895 1.07985494 1.07929372 1.0787353
 1.07817967 1.07762684 1.0770768  1.07652955 1.0759851  1.07544344
 1.07490458 1.07436851 1.07383522 1.07330474 1.07277704 1.07225214
 1.07173002 1.0712107  1.07069417 1.07018042 1.06966947 1.06916131
 1.06865593 1.06815334 1.06765354 1.06715652 1.0666623  1.06617085
 1.0656822  1.06519632 1.06471323 1.06423293 1.06375541 1.06328066
 1.06280871 1.06233953 1.06187313 1.06140951 1.06094866 1.0604906
 1.06003531 1.0595828  1.05913306 1.0586861  1.05824191 1.05780049
 1.05736185 1.05692597 1.05649286 1.05606253 1.05563496 1.05521016
 1.05478812 1.05436885 1.05395234 1.0535386  1.05312761 1.05271939
 1.05231392 1.05191122 1.05151127 1.05111408 1.05071964 1.05032795
 1.04993902 1.04955284 1.04916941 1.04878872 1.04841079 1.04803559
 1.04766315 1.04729344 1.04692648 1.04656226 1.04620078 1.04584203
 1.04548603 1.04513275 1.04478221 1.0444344  1.04408932 1.04374697
 1.04340734 1.04307044 1.04273627 1.04240482 1.04207608 1.04175007
 1.04142677 1.04110619 1.04078832 1.04047317 1.04016072 1.03985099
 1.03954395 1.03923963 1.03893801 1.03863909 1.03834287 1.03804934
 1.03775851 1.03747038 1.03718494 1.03690218 1.03662212 1.03634474
 1.03607004 1.03579803 1.03552869 1.03526204 1.03499806 1.03473675
 1.03447812 1.03422215 1.03396885 1.03371821 1.03347024 1.03322493
 1.03298228 1.03274228 1.03250494 1.03227025 1.0320382  1.03180881
 1.03158206 1.03135795 1.03113648 1.03091765 1.03070145 1.03048788
 1.03027695 1.03006864 1.02986296 1.0296599  1.02945946 1.02926164
 1.02906643 1.02887383 1.02868385 1.02849647 1.0283117  1.02812952
 1.02794995 1.02777297 1.02759859 1.0274268  1.02725759 1.02709098
 1.02692694 1.02676548 1.0266066  1.0264503  1.02629657 1.0261454
 1.0259968  1.02585076 1.02570728 1.02556636 1.025428   1.02529218
 1.02515891 1.02502819 1.02490001 1.02477436 1.02465125 1.02453068
 1.02441263 1.02429711 1.02418412 1.02407364 1.02396568 1.02386023
 1.0237573  1.02365687 1.02355894 1.02346352 1.02337059 1.02328016
 1.02319222 1.02310676 1.02302379 1.0229433  1.02286529 1.02278975
 1.02271668 1.02264608 1.02257794 1.02251226 1.02244904 1.02238827
 1.02232995 1.02227408 1.02222065 1.02216966 1.0221211  1.02207498
 1.02203129 1.02199001 1.02195116 1.02191473 1.02188071 1.0218491
 1.0218199  1.0217931  1.0217687  1.02174669 1.02172707 1.02170984
 1.021695   1.02168253 1.02167244 1.02166473 1.02165938 1.02165639
 1.02165577 1.0216575  1.02166158 1.02166802 1.0216768  1.02168791
 1.02170137 1.02171716 1.02173527 1.02175571 1.02177848 1.02180355
 1.02183094 1.02186064 1.02189265 1.02192695 1.02196355 1.02200244
 1.02204362 1.02208708 1.02213283 1.02218084 1.02223113 1.02228369
 1.0223385  1.02239558 1.02245491 1.02251649 1.02258031 1.02264638
 1.02271468 1.02278521 1.02285798 1.02293296 1.02301017 1.02308959
 1.02317122 1.02325506 1.02334109 1.02342933 1.02351976 1.02361238
 1.02370718 1.02380416 1.02390331 1.02400464 1.02410813 1.02421378
 1.02432159 1.02443155 1.02454366 1.02465791 1.0247743  1.02489283
 1.02501348 1.02513626 1.02526115 1.02538817 1.02551729 1.02564852
 1.02578185 1.02591728 1.0260548  1.0261944  1.02633609 1.02647986
 1.02662569 1.0267736  1.02692357 1.0270756  1.02722968 1.02738581
 1.02754399 1.0277042  1.02786645 1.02803073 1.02819704 1.02836536
 1.0285357  1.02870805 1.0288824  1.02905876 1.02923711 1.02941745
 1.02959978 1.02978408 1.02997037 1.03015862 1.03034884 1.03054102
 1.03073516 1.03093125 1.03112928 1.03132926 1.03153117 1.03173501
 1.03194078 1.03214846 1.03235807 1.03256958 1.032783   1.03299833
 1.03321554 1.03343465 1.03365564 1.03387852 1.03410327 1.03432989
 1.03455837 1.03478871 1.03502091 1.03525496 1.03549085 1.03572858
 1.03596815 1.03620955 1.03645276 1.0366978  1.03694465 1.03719331
 1.03744377 1.03769604 1.03795009 1.03820593 1.03846355 1.03872295
 1.03898412 1.03924706 1.03951176 1.03977822 1.04004643 1.04031638
 1.04058807 1.0408615  1.04113666 1.04141354 1.04169214 1.04197246
 1.04225448 1.04253821 1.04282364 1.04311076 1.04339956 1.04369005
 1.04398222 1.04427606 1.04457156 1.04486873 1.04516755 1.04546802
 1.04577013 1.04607389 1.04637928 1.0466863  1.04699494 1.0473052
 1.04761708 1.04793056 1.04824564 1.04856232 1.0488806  1.04920045
 1.04952189 1.04984491 1.05016949 1.05049564 1.05082335 1.05115262
 1.05148343 1.05181578 1.05214968 1.0524851  1.05282205 1.05316053
 1.05350052 1.05384202 1.05418503 1.05452954 1.05487554 1.05522303
 1.055572   1.05592246 1.05627438 1.05662778 1.05698264 1.05733895
 1.05769672 1.05805593 1.05841658 1.05877867 1.05914219 1.05950713
 1.05987349 1.06024127 1.06061045 1.06098104 1.06135303 1.0617264
 1.06210117 1.06247731 1.06285483 1.06323373 1.06361398 1.0639956
 1.06437857 1.06476289 1.06514856 1.06553556 1.06592389 1.06631356
 1.06670454 1.06709685 1.06749046 1.06788538 1.0682816  1.06867911
 1.06907792 1.06947801 1.06987938 1.07028202 1.07068593 1.07109111
 1.07149754 1.07190522 1.07231415 1.07272433 1.07313573 1.07354837
 1.07396224 1.07437733 1.07479363 1.07521114 1.07562985 1.07604976
 1.07647087 1.07689316 1.07731664 1.0777413  1.07816713 1.07859412
 1.07902228 1.07945159 1.07988205 1.08031366 1.08074641 1.0811803
 1.08161531 1.08205145 1.08248871 1.08292708 1.08336656 1.08380715
 1.08424883 1.08469161 1.08513547 1.08558042 1.08602644 1.08647354
 1.0869217  1.08737093 1.08782121 1.08827254 1.08872492 1.08917833
 1.08963279 1.09008827 1.09054478 1.09100231 1.09146085 1.09192041
 1.09238096 1.09284252 1.09330507 1.09376861 1.09423313 1.09469864
 1.09516511 1.09563255 1.09610096 1.09657033 1.09704064 1.09751191
 1.09798412 1.09845726 1.09893134 1.09940635 1.09988227 1.10035912
 1.10083688 1.10131554 1.10179511 1.10227557 1.10275693 1.10323917
 1.1037223  1.1042063  1.10469117 1.10517691 1.10566351 1.10615097
 1.10663928 1.10712844 1.10761844 1.10810928 1.10860095 1.10909344
 1.10958676 1.1100809  1.11057584 1.1110716  1.11156816 1.11206551
 1.11256366 1.1130626  1.11356231 1.11406281 1.11456408 1.11506612
 1.11556892 1.11607248 1.11657679 1.11708185 1.11758766 1.1180942
 1.11860148 1.11910949 1.11961823 1.12012768 1.12063785 1.12114873
 1.12166032 1.12217261 1.12268559 1.12319926 1.12371363 1.12422867
 1.12474439 1.12526079 1.12577785 1.12629557 1.12681396 1.127333
 1.12785268 1.12837301 1.12889399 1.1294156  1.12993783 1.1304607
 1.13098419 1.13150829 1.132033   1.13255833 1.13308426 1.13361078
 1.1341379  1.13466561 1.13519391 1.13572278 1.13625223 1.13678226
 1.13731285 1.137844   1.13837571 1.13890798 1.13944079 1.13997415
 1.14050805 1.14104249 1.14157745 1.14211295 1.14264896 1.1431855
 1.14372255 1.14426011 1.14479817 1.14533674 1.1458758  1.14641535
 1.14695539 1.14749592 1.14803692 1.1485784  1.14912035 1.14966277
 1.15020565 1.15074899 1.15129278 1.15183702 1.15238171 1.15292683
 1.1534724  1.15401839 1.15456482 1.15511167 1.15565894 1.15620663
 1.15675472 1.15730323 1.15785214 1.15840145 1.15895115 1.15950125
 1.16005173 1.1606026  1.16115384 1.16170546 1.16225746 1.16280982
 1.16336254 1.16391562 1.16446906 1.16502284 1.16557698 1.16613146
 1.16668628 1.16724143 1.16779691 1.16835273 1.16890886 1.16946532
 1.17002209 1.17057917 1.17113656 1.17169426 1.17225225 1.17281055
 1.17336913 1.17392801 1.17448717 1.17504661 1.17560632 1.17616632
 1.17672658 1.17728711 1.1778479  1.17840895 1.17897026 1.17953181
 1.18009362 1.18065567 1.18121796 1.18178048 1.18234324 1.18290623
 1.18346945 1.18403288 1.18459654 1.18516041 1.18572449 1.18628878
 1.18685328 1.18741797 1.18798287 1.18854795 1.18911323 1.1896787
 1.19024434 1.19081017 1.19137617 1.19194235 1.1925087  1.19307521
 1.19364188 1.19420872 1.19477571 1.19534285 1.19591014 1.19647758
 1.19704516 1.19761288 1.19818073 1.19874872 1.19931684 1.19988508
 1.20045344 1.20102193 1.20159052 1.20215924 1.20272806 1.20329699
 1.20386602 1.20443515 1.20500437 1.20557369 1.20614311 1.2067126
 1.20728218 1.20785185 1.20842159 1.2089914  1.20956129 1.21013124
 1.21070126 1.21127135 1.21184149 1.21241168 1.21298193 1.21355223
 1.21412258 1.21469297 1.21526341 1.21583388 1.21640438 1.21697492
 1.21754549 1.21811608 1.2186867  1.21925733 1.21982799 1.22039866
 1.22096934 1.22154003 1.22211072 1.22268142 1.22325212 1.22382281
 1.22439351 1.22496419 1.22553486 1.22610552 1.22667616 1.22724678
 1.22781739 1.22838796 1.22895851 1.22952903 1.23009952 1.23066997
 1.23124038 1.23181075 1.23238108 1.23295136 1.23352159 1.23409178
 1.2346619  1.23523197 1.23580199 1.23637194 1.23694182 1.23751164
 1.23808139 1.23865107 1.23922067 1.2397902  1.24035965 1.24092901
 1.2414983  1.24206749 1.24263659 1.24320561 1.24377453 1.24434335
 1.24491207 1.24548069 1.24604921 1.24661763 1.24718593 1.24775412
 1.2483222  1.24889017 1.24945801 1.25002574 1.25059334 1.25116082
 1.25172817 1.2522954  1.25286249 1.25342945 1.25399627 1.25456295
 1.25512949 1.25569589 1.25626215 1.25682826 1.25739422 1.25796003
 1.25852568 1.25909118 1.25965652 1.26022171 1.26078673 1.26135158
 1.26191627 1.2624808  1.26304515 1.26360933 1.26417333 1.26473716
 1.26530081 1.26586429 1.26642758 1.26699068 1.2675536  1.26811633
 1.26867887 1.26924122 1.26980337 1.27036533 1.27092709 1.27148866
 1.27205002 1.27261117 1.27317212 1.27373287 1.2742934  1.27485373
 1.27541384 1.27597374 1.27653342 1.27709289 1.27765213 1.27821115
 1.27876995 1.27932853 1.27988688 1.28044499 1.28100288 1.28156054
 1.28211797 1.28267516 1.28323211 1.28378882 1.2843453  1.28490153
 1.28545752 1.28601326 1.28656876 1.28712401]
t = [1.09636725e+09 1.09636732e+09 1.09636740e+09 1.09636747e+09
 1.09636754e+09 1.09636762e+09 1.09636769e+09 1.09636776e+09
 1.09636784e+09 1.09636791e+09 1.09636798e+09 1.09636806e+09
 1.09636813e+09 1.09636820e+09 1.09636828e+09 1.09636835e+09
 1.09636842e+09 1.09636850e+09 1.09636857e+09 1.09636865e+09
 1.09636872e+09 1.09636879e+09 1.09636887e+09 1.09636894e+09
 1.09636901e+09 1.09636909e+09 1.09636916e+09 1.09636923e+09
 1.09636931e+09 1.09636938e+09 1.09636945e+09 1.09636953e+09
 1.09636960e+09 1.09636967e+09 1.09636975e+09 1.09636982e+09
 1.09636989e+09 1.09636997e+09 1.09637004e+09 1.09637011e+09
 1.09637019e+09 1.09637026e+09 1.09637033e+09 1.09637041e+09
 1.09637048e+09 1.09637055e+09 1.09637063e+09 1.09637070e+09
 1.09637077e+09 1.09637085e+09 1.09637092e+09 1.09637099e+09
 1.09637107e+09 1.09637114e+09 1.09637122e+09 1.09637129e+09
 1.09637136e+09 1.09637144e+09 1.09637151e+09 1.09637158e+09
 1.09637166e+09 1.09637173e+09 1.09637180e+09 1.09637188e+09
 1.09637195e+09 1.09637202e+09 1.09637210e+09 1.09637217e+09
 1.09637224e+09 1.09637232e+09 1.09637239e+09 1.09637246e+09
 1.09637254e+09 1.09637261e+09 1.09637268e+09 1.09637276e+09
 1.09637283e+09 1.09637290e+09 1.09637298e+09 1.09637305e+09
 1.09637312e+09 1.09637320e+09 1.09637327e+09 1.09637334e+09
 1.09637342e+09 1.09637349e+09 1.09637356e+09 1.09637364e+09
 1.09637371e+09 1.09637378e+09 1.09637386e+09 1.09637393e+09
 1.09637401e+09 1.09637408e+09 1.09637415e+09 1.09637423e+09
 1.09637430e+09 1.09637437e+09 1.09637445e+09 1.09637452e+09
 1.09637459e+09 1.09637467e+09 1.09637474e+09 1.09637481e+09
 1.09637489e+09 1.09637496e+09 1.09637503e+09 1.09637511e+09
 1.09637518e+09 1.09637525e+09 1.09637533e+09 1.09637540e+09
 1.09637547e+09 1.09637555e+09 1.09637562e+09 1.09637569e+09
 1.09637577e+09 1.09637584e+09 1.09637591e+09 1.09637599e+09
 1.09637606e+09 1.09637613e+09 1.09637621e+09 1.09637628e+09
 1.09637635e+09 1.09637643e+09 1.09637650e+09 1.09637657e+09
 1.09637665e+09 1.09637672e+09 1.09637680e+09 1.09637687e+09
 1.09637694e+09 1.09637702e+09 1.09637709e+09 1.09637716e+09
 1.09637724e+09 1.09637731e+09 1.09637738e+09 1.09637746e+09
 1.09637753e+09 1.09637760e+09 1.09637768e+09 1.09637775e+09
 1.09637782e+09 1.09637790e+09 1.09637797e+09 1.09637804e+09
 1.09637812e+09 1.09637819e+09 1.09637826e+09 1.09637834e+09
 1.09637841e+09 1.09637848e+09 1.09637856e+09 1.09637863e+09
 1.09637870e+09 1.09637878e+09 1.09637885e+09 1.09637892e+09
 1.09637900e+09 1.09637907e+09 1.09637914e+09 1.09637922e+09
 1.09637929e+09 1.09637937e+09 1.09637944e+09 1.09637951e+09
 1.09637959e+09 1.09637966e+09 1.09637973e+09 1.09637981e+09
 1.09637988e+09 1.09637995e+09 1.09638003e+09 1.09638010e+09
 1.09638017e+09 1.09638025e+09 1.09638032e+09 1.09638039e+09
 1.09638047e+09 1.09638054e+09 1.09638061e+09 1.09638069e+09
 1.09638076e+09 1.09638083e+09 1.09638091e+09 1.09638098e+09
 1.09638105e+09 1.09638113e+09 1.09638120e+09 1.09638127e+09
 1.09638135e+09 1.09638142e+09 1.09638149e+09 1.09638157e+09
 1.09638164e+09 1.09638171e+09 1.09638179e+09 1.09638186e+09
 1.09638193e+09 1.09638201e+09 1.09638208e+09 1.09638216e+09
 1.09638223e+09 1.09638230e+09 1.09638238e+09 1.09638245e+09
 1.09638252e+09 1.09638260e+09 1.09638267e+09 1.09638274e+09
 1.09638282e+09 1.09638289e+09 1.09638296e+09 1.09638304e+09
 1.09638311e+09 1.09638318e+09 1.09638326e+09 1.09638333e+09
 1.09638340e+09 1.09638348e+09 1.09638355e+09 1.09638362e+09
 1.09638370e+09 1.09638377e+09 1.09638384e+09 1.09638392e+09
 1.09638399e+09 1.09638406e+09 1.09638414e+09 1.09638421e+09
 1.09638428e+09 1.09638436e+09 1.09638443e+09 1.09638450e+09
 1.09638458e+09 1.09638465e+09 1.09638472e+09 1.09638480e+09
 1.09638487e+09 1.09638495e+09 1.09638502e+09 1.09638509e+09
 1.09638517e+09 1.09638524e+09 1.09638531e+09 1.09638539e+09
 1.09638546e+09 1.09638553e+09 1.09638561e+09 1.09638568e+09
 1.09638575e+09 1.09638583e+09 1.09638590e+09 1.09638597e+09
 1.09638605e+09 1.09638612e+09 1.09638619e+09 1.09638627e+09
 1.09638634e+09 1.09638641e+09 1.09638649e+09 1.09638656e+09
 1.09638663e+09 1.09638671e+09 1.09638678e+09 1.09638685e+09
 1.09638693e+09 1.09638700e+09 1.09638707e+09 1.09638715e+09
 1.09638722e+09 1.09638729e+09 1.09638737e+09 1.09638744e+09
 1.09638752e+09 1.09638759e+09 1.09638766e+09 1.09638774e+09
 1.09638781e+09 1.09638788e+09 1.09638796e+09 1.09638803e+09
 1.09638810e+09 1.09638818e+09 1.09638825e+09 1.09638832e+09
 1.09638840e+09 1.09638847e+09 1.09638854e+09 1.09638862e+09
 1.09638869e+09 1.09638876e+09 1.09638884e+09 1.09638891e+09
 1.09638898e+09 1.09638906e+09 1.09638913e+09 1.09638920e+09
 1.09638928e+09 1.09638935e+09 1.09638942e+09 1.09638950e+09
 1.09638957e+09 1.09638964e+09 1.09638972e+09 1.09638979e+09
 1.09638986e+09 1.09638994e+09 1.09639001e+09 1.09639008e+09
 1.09639016e+09 1.09639023e+09 1.09639031e+09 1.09639038e+09
 1.09639045e+09 1.09639053e+09 1.09639060e+09 1.09639067e+09
 1.09639075e+09 1.09639082e+09 1.09639089e+09 1.09639097e+09
 1.09639104e+09 1.09639111e+09 1.09639119e+09 1.09639126e+09
 1.09639133e+09 1.09639141e+09 1.09639148e+09 1.09639155e+09
 1.09639163e+09 1.09639170e+09 1.09639177e+09 1.09639185e+09
 1.09639192e+09 1.09639199e+09 1.09639207e+09 1.09639214e+09
 1.09639221e+09 1.09639229e+09 1.09639236e+09 1.09639243e+09
 1.09639251e+09 1.09639258e+09 1.09639265e+09 1.09639273e+09
 1.09639280e+09 1.09639287e+09 1.09639295e+09 1.09639302e+09
 1.09639310e+09 1.09639317e+09 1.09639324e+09 1.09639332e+09
 1.09639339e+09 1.09639346e+09 1.09639354e+09 1.09639361e+09
 1.09639368e+09 1.09639376e+09 1.09639383e+09 1.09639390e+09
 1.09639398e+09 1.09639405e+09 1.09639412e+09 1.09639420e+09
 1.09639427e+09 1.09639434e+09 1.09639442e+09 1.09639449e+09
 1.09639456e+09 1.09639464e+09 1.09639471e+09 1.09639478e+09
 1.09639486e+09 1.09639493e+09 1.09639500e+09 1.09639508e+09
 1.09639515e+09 1.09639522e+09 1.09639530e+09 1.09639537e+09
 1.09639544e+09 1.09639552e+09 1.09639559e+09 1.09639567e+09
 1.09639574e+09 1.09639581e+09 1.09639589e+09 1.09639596e+09
 1.09639603e+09 1.09639611e+09 1.09639618e+09 1.09639625e+09
 1.09639633e+09 1.09639640e+09 1.09639647e+09 1.09639655e+09
 1.09639662e+09 1.09639669e+09 1.09639677e+09 1.09639684e+09
 1.09639691e+09 1.09639699e+09 1.09639706e+09 1.09639713e+09
 1.09639721e+09 1.09639728e+09 1.09639735e+09 1.09639743e+09
 1.09639750e+09 1.09639757e+09 1.09639765e+09 1.09639772e+09
 1.09639779e+09 1.09639787e+09 1.09639794e+09 1.09639801e+09
 1.09639809e+09 1.09639816e+09 1.09639823e+09 1.09639831e+09
 1.09639838e+09 1.09639846e+09 1.09639853e+09 1.09639860e+09
 1.09639868e+09 1.09639875e+09 1.09639882e+09 1.09639890e+09
 1.09639897e+09 1.09639904e+09 1.09639912e+09 1.09639919e+09
 1.09639926e+09 1.09639934e+09 1.09639941e+09 1.09639948e+09
 1.09639956e+09 1.09639963e+09 1.09639970e+09 1.09639978e+09
 1.09639985e+09 1.09639992e+09 1.09640000e+09 1.09640007e+09
 1.09640014e+09 1.09640022e+09 1.09640029e+09 1.09640036e+09
 1.09640044e+09 1.09640051e+09 1.09640058e+09 1.09640066e+09
 1.09640073e+09 1.09640080e+09 1.09640088e+09 1.09640095e+09
 1.09640102e+09 1.09640110e+09 1.09640117e+09 1.09640125e+09
 1.09640132e+09 1.09640139e+09 1.09640147e+09 1.09640154e+09
 1.09640161e+09 1.09640169e+09 1.09640176e+09 1.09640183e+09
 1.09640191e+09 1.09640198e+09 1.09640205e+09 1.09640213e+09
 1.09640220e+09 1.09640227e+09 1.09640235e+09 1.09640242e+09
 1.09640249e+09 1.09640257e+09 1.09640264e+09 1.09640271e+09
 1.09640279e+09 1.09640286e+09 1.09640293e+09 1.09640301e+09
 1.09640308e+09 1.09640315e+09 1.09640323e+09 1.09640330e+09
 1.09640337e+09 1.09640345e+09 1.09640352e+09 1.09640359e+09
 1.09640367e+09 1.09640374e+09 1.09640382e+09 1.09640389e+09
 1.09640396e+09 1.09640404e+09 1.09640411e+09 1.09640418e+09
 1.09640426e+09 1.09640433e+09 1.09640440e+09 1.09640448e+09
 1.09640455e+09 1.09640462e+09 1.09640470e+09 1.09640477e+09
 1.09640484e+09 1.09640492e+09 1.09640499e+09 1.09640506e+09
 1.09640514e+09 1.09640521e+09 1.09640528e+09 1.09640536e+09
 1.09640543e+09 1.09640550e+09 1.09640558e+09 1.09640565e+09
 1.09640572e+09 1.09640580e+09 1.09640587e+09 1.09640594e+09
 1.09640602e+09 1.09640609e+09 1.09640616e+09 1.09640624e+09
 1.09640631e+09 1.09640638e+09 1.09640646e+09 1.09640653e+09
 1.09640661e+09 1.09640668e+09 1.09640675e+09 1.09640683e+09
 1.09640690e+09 1.09640697e+09 1.09640705e+09 1.09640712e+09
 1.09640719e+09 1.09640727e+09 1.09640734e+09 1.09640741e+09
 1.09640749e+09 1.09640756e+09 1.09640763e+09 1.09640771e+09
 1.09640778e+09 1.09640785e+09 1.09640793e+09 1.09640800e+09
 1.09640807e+09 1.09640815e+09 1.09640822e+09 1.09640829e+09
