name =JUICE_ROI_GAN_6_2_02
flyby = ['2033 NOV 26 18:22:11', '2033 NOV 27 18:22:11']
Observation TW = <SpiceCell dtype = 1, length = 0, size = 2400, card = 4, is_set = 1, adjust = 0, init = 1, base = 94076731742224, data = 94076731742272>
Res(t) = [0.63761994 0.63916924 0.64073045 0.64230324 0.64388729 0.64548229
 0.64708796 0.64870399 0.65033013 0.6519661  0.65361163 0.65526648
 0.65693041 0.65860317 0.66028454 0.66197429 0.66367222 0.6653781
 0.66709174 0.66881294 0.67054151 0.67227726 0.67402002 0.6757696
 0.67752584 0.67928857 0.68105764 0.68283287 0.68461414 0.68640127
 0.68819415 0.68999261 0.69179653 0.69360578 0.69542023 0.69723975
 0.69906422 0.70089353 0.70272755 0.70456618 0.70640931 0.70825683
 0.71010863 0.71196462 0.7138247  0.71568877 0.71755674 0.71942852
 0.72130402 0.72318315 0.72506582 0.72695197 0.7288415  0.73073433
 0.7326304  0.73452963 0.73643194 0.73833726 0.74024552 0.74215667
 0.74407062 0.74598732 0.7479067  0.7498287  0.75175326 0.75368032
 0.75560983 0.75754173 0.75947597 0.76141248 0.76335122 0.76529214
 0.76723519 0.76918032 0.77112748 0.77307662 0.7750277  0.77698068
 0.7789355  0.78089213 0.78285053 0.78481066 0.78677246 0.78873592
 0.79070098 0.79266761 0.79463578 0.79660544 0.79857656 0.80054911
 0.80252306 0.80449836 0.80647499 0.80845292 0.81043212 0.81241255
 0.81439419 0.816377   0.81836096 0.82034604 0.82233221 0.82431945
 0.82630773 0.82829702 0.8302873  0.83227854 0.83427072 0.83626381
 0.8382578  0.84025265 0.84224835 0.84424488 0.84624221 0.84824032
 0.85023919 0.8522388  0.85423913 0.85624016 0.85824187 0.86024424
 0.86224726 0.86425091 0.86625516 0.86826001 0.87026542 0.8722714
 0.87427791 0.87628495 0.8782925  0.88030053 0.88230905 0.88431803
 0.88632745 0.88833731 0.89034759 0.89235827 0.89436935 0.8963808
 0.89839261 0.90040478 0.90241728 0.90443012 0.90644326 0.90845671
 0.91047045 0.91248447 0.91449875 0.91651329 0.91852808 0.9205431
 0.92255834 0.9245738  0.92658946 0.92860531 0.93062135 0.93263756
 0.93465393 0.93667046 0.93868714 0.94070395 0.94272088 0.94473794
 0.94675511 0.94877238 0.95078974 0.95280719 0.95482471 0.95684231
 0.95885997 0.96087768 0.96289544 0.96491324 0.96693107 0.96894893
 0.9709668  0.97298469 0.97500259 0.97702048 0.97903837 0.98105624
 0.98307409 0.98509192 0.98710971 0.98912747 0.99114518 0.99316285
 0.99518045 0.997198   0.99921548 1.00123289 1.00325023 1.00526748
 1.00728465 1.00930173 1.01131871 1.01333559 1.01535236 1.01736902
 1.01938557 1.021402   1.02341831 1.02543449 1.02745054 1.02946645
 1.03148222 1.03349785 1.03551333 1.03752866 1.03954384 1.04155885
 1.04357371 1.0455884  1.04760291 1.04961726 1.05163143 1.05364542
 1.05565923 1.05767285 1.05968628 1.06169952 1.06371257 1.06572541
 1.06773806 1.0697505  1.07176274 1.07377477 1.07578659 1.07779819
 1.07980957 1.08182074 1.08383168 1.0858424  1.0878529  1.08986316
 1.0918732  1.093883   1.09589256 1.09790189 1.09991098 1.10191982
 1.10392842 1.10593678 1.10794489 1.10995275 1.11196035 1.11396771
 1.11597481 1.11798165 1.11998824 1.12199456 1.12400062 1.12600642
 1.12801196 1.13001723 1.13202223 1.13402696 1.13603142 1.13803561
 1.14003953 1.14204317 1.14404654 1.14604962 1.14805243 1.15005497
 1.15205722 1.15405919 1.15606087 1.15806228 1.16006339 1.16206423
 1.16406477 1.16606503 1.168065   1.17006467 1.17206406 1.17406316
 1.17606197 1.17806048 1.1800587  1.18205662 1.18405425 1.18605158
 1.18804862 1.19004536 1.1920418  1.19403794 1.19603378 1.19802933
 1.20002457 1.20201952 1.20401416 1.2060085  1.20800254 1.20999627
 1.2119897  1.21398283 1.21597566 1.21796818 1.2199604  1.22195231
 1.22394392 1.22593522 1.22792622 1.22991691 1.23190729 1.23389737
 1.23588714 1.2378766  1.23986576 1.24185461 1.24384316 1.24583139
 1.24781932 1.24980694 1.25179426 1.25378126 1.25576796 1.25775435
 1.25974044 1.26172621 1.26371168 1.26569684 1.26768169 1.26966624
 1.27165047 1.2736344  1.27561803 1.27760134 1.27958435 1.28156705
 1.28354945 1.28553154 1.28751332 1.28949479 1.29147596 1.29345683
 1.29543739 1.29741764 1.29939759 1.30137723 1.30335657 1.3053356
 1.30731433 1.30929275 1.31127088 1.3132487  1.31522621 1.31720343
 1.31918034 1.32115695 1.32313325 1.32510926 1.32708497 1.32906037
 1.33103548 1.33301029 1.33498479 1.336959   1.33893292 1.34090653
 1.34287984 1.34485286 1.34682559 1.34879801 1.35077015 1.35274198
 1.35471352 1.35668477 1.35865573 1.36062639 1.36259676 1.36456684
 1.36653663 1.36850612 1.37047533 1.37244425 1.37441288 1.37638122
 1.37834927 1.38031704 1.38228452 1.38425171 1.38621862 1.38818524
 1.39015158 1.39211764 1.39408341 1.3960489  1.39801411 1.39997904
 1.40194369 1.40390806 1.40587215 1.40783596 1.4097995  1.41176276
 1.41372574 1.41568845 1.41765089 1.41961305 1.42157493 1.42353655
 1.42549789 1.42745897 1.42941977 1.4313803  1.43334057 1.43530056
 1.43726029 1.43921976 1.44117896 1.44313789 1.44509656 1.44705497
 1.44901311 1.450971   1.45292862 1.45488598 1.45684308 1.45879993
 1.46075652 1.46271285 1.46466892 1.46662475 1.46858031 1.47053563
 1.47249069 1.4744455  1.47640005 1.47835436 1.48030842 1.48226223
 1.4842158  1.48616912 1.48812219 1.49007502 1.4920276  1.49397994
 1.49593204 1.4978839  1.49983552 1.5017869  1.50373804 1.50568894
 1.50763961 1.50959004 1.51154023 1.5134902  1.51543993 1.51738942
 1.51933869 1.52128773 1.52323653 1.52518511 1.52713346 1.52908159
 1.53102949 1.53297716 1.53492461 1.53687184 1.53881885 1.54076564
 1.5427122  1.54465855 1.54660468 1.5485506  1.55049629 1.55244178
 1.55438704 1.5563321  1.55827694 1.56022158 1.562166   1.56411021
 1.56605422 1.56799802 1.56994161 1.571885   1.57382818 1.57577116
 1.57771394 1.57965652 1.58159889 1.58354107 1.58548305 1.58742483
 1.58936642 1.59130781 1.59324901 1.59519001 1.59713083 1.59907145
 1.60101188 1.60295212 1.60489218 1.60683204 1.60877173 1.61071122
 1.61265054 1.61458967 1.61652861 1.61846738 1.62040597 1.62234438
 1.62428261 1.62622067 1.62815855 1.63009625 1.63203378 1.63397114
 1.63590833 1.63784535 1.6397822  1.64171888 1.64365539 1.64559174
 1.64752792 1.64946394 1.6513998  1.65333549 1.65527102 1.65720639
 1.65914161 1.66107667 1.66301157 1.66494631 1.6668809  1.66881534
 1.67074962 1.67268376 1.67461774 1.67655157 1.67848526 1.6804188
 1.68235219 1.68428544 1.68621854 1.68815151 1.69008433 1.69201701
 1.69394955 1.69588195 1.69781422 1.69974635 1.70167834 1.7036102
 1.70554193 1.70747352 1.70940499 1.71133632 1.71326753 1.71519861
 1.71712956 1.71906039 1.72099109 1.72292167 1.72485213 1.72678247
 1.72871268 1.73064278 1.73257276 1.73450263 1.73643238 1.73836201
 1.74029153 1.74222094 1.74415024 1.74607943 1.74800851 1.74993748
 1.75186634 1.7537951  1.75572376 1.75765231 1.75958076 1.76150911
 1.76343735 1.7653655  1.76729355 1.76922151 1.77114937 1.77307713
 1.7750048  1.77693238 1.77885987 1.78078727 1.78271458 1.7846418
 1.78656893 1.78849598 1.79042294 1.79234982 1.79427662 1.79620333
 1.79812997 1.80005653 1.80198301 1.80390941 1.80583573 1.80776199
 1.80968817 1.81161427 1.81354031 1.81546627 1.81739217 1.81931799
 1.82124376 1.82316945 1.82509508 1.82702065 1.82894615 1.8308716
 1.83279698 1.8347223  1.83664757 1.83857278 1.84049793 1.84242303
 1.84434808 1.84627307 1.84819801 1.85012291 1.85204775 1.85397254
 1.85589729 1.85782199 1.85974665 1.86167127 1.86359584 1.86552037
 1.86744486 1.86936931 1.87129373 1.8732181  1.87514245 1.87706675
 1.87899103 1.88091527 1.88283948 1.88476366 1.88668781 1.88861193
 1.89053603 1.8924601  1.89438415 1.89630817 1.89823217 1.90015615
 1.90208011 1.90400405 1.90592797 1.90785188 1.90977577 1.91169964
 1.9136235  1.91554736 1.91747119 1.91939502 1.92131884 1.92324266
 1.92516646 1.92709026 1.92901406 1.93093785 1.93286164 1.93478543
 1.93670922 1.93863301 1.9405568  1.94248059 1.94440439 1.9463282
 1.94825201 1.95017583 1.95209966 1.9540235  1.95594735 1.95787121
 1.95979508 1.96171897 1.96364288 1.9655668  1.96749074 1.9694147
 1.97133867 1.97326267 1.9751867  1.97711074 1.97903481 1.9809589
 1.98288302 1.98480717 1.98673135 1.98865556 1.9905798  1.99250407
 1.99442837 1.99635271 1.99827708 2.00020149 2.00212594 2.00405043
 2.00597496 2.00789952 2.00982413 2.01174879 2.01367348 2.01559823
 2.01752301 2.01944785 2.02137274 2.02329767 2.02522266 2.0271477
 2.02907279 2.03099793 2.03292313 2.03484839 2.0367737  2.03869908
 2.04062451 2.04255    2.04447556 2.04640118 2.04832686 2.05025261
 2.05217842 2.0541043  2.05603025 2.05795627 2.05988236 2.06180852
 2.06373476 2.06566106 2.06758745 2.06951391 2.07144044 2.07336706
 2.07529375 2.07722053 2.07914738 2.08107432 2.08300135 2.08492845
 2.08685565 2.08878293 2.0907103  2.09263776 2.0945653  2.09649294
 2.09842068 2.1003485  2.10227642 2.10420444 2.10613255 2.10806076
 2.10998907 2.11191748 2.11384599 2.11577461 2.11770332 2.11963215
 2.12156107 2.12349011 2.12541925 2.1273485  2.12927786 2.13120733
 2.13313691 2.1350666  2.13699641 2.13892634 2.14085638 2.14278654
 2.14471681 2.14664721 2.14857773 2.15050837 2.15243913 2.15437001
 2.15630102 2.15823216 2.16016342 2.16209481 2.16402634 2.16595799
 2.16788977 2.16982168 2.17175373 2.17368591 2.17561823 2.17755069
 2.17948328 2.18141601 2.18334888 2.1852819  2.18721505 2.18914835
 2.19108179 2.19301538 2.19494911 2.19688299 2.19881702 2.2007512
 2.20268553 2.20462001 2.20655464 2.20848943 2.21042437 2.21235947
 2.21429473 2.21623014 2.21816571 2.22010144 2.22203734 2.22397339
 2.22590961 2.22784599 2.22978254 2.23171926 2.23365614 2.23559319
 2.23753041 2.2394678  2.24140537 2.2433431  2.24528101 2.2472191
 2.24915736 2.2510958  2.25303441 2.25497321 2.25691218 2.25885134
 2.26079068 2.2627302  2.26466991 2.2666098  2.26854988 2.27049014
 2.2724306  2.27437124 2.27631208 2.2782531  2.28019432 2.28213573
 2.28407734 2.28601914 2.28796114 2.28990334 2.29184574 2.29378834
 2.29573113 2.29767413 2.29961734 2.30156075 2.30350436 2.30544818
 2.3073922  2.30933644 2.31128088 2.31322554 2.3151704  2.31711548
 2.31906077 2.32100628 2.322952   2.32489794 2.32684409 2.32879047
 2.33073706 2.33268388 2.33463091 2.33657817 2.33852566 2.34047336
 2.3424213  2.34436946 2.34631785 2.34826646 2.35021531 2.35216439
 2.3541137  2.35606324 2.35801302 2.35996303 2.36191328 2.36386377
 2.36581449 2.36776546 2.36971666 2.3716681  2.37361979 2.37557172
 2.37752389 2.37947631 2.38142898 2.38338189 2.38533505 2.38728846
 2.38924212 2.39119603 2.3931502  2.39510462 2.39705929 2.39901422
 2.4009694  2.40292484 2.40488054 2.4068365  2.40879272 2.4107492
 2.41270594 2.41466295 2.41662022 2.41857776 2.42053556 2.42249363
 2.42445197 2.42641058 2.42836946 2.43032861 2.43228803 2.43424773
 2.4362077  2.43816795 2.44012847 2.44208927 2.44405035 2.44601171
 2.44797335 2.44993527 2.45189747 2.45385996 2.45582273 2.45778578
 2.45974913 2.46171276 2.46367668 2.46564088 2.46760538 2.46957017
 2.47153526 2.47350063 2.4754663  2.47743227 2.47939853 2.48136509
 2.48333194 2.4852991  2.48726656 2.48923432 2.49120238 2.49317074
 2.49513941 2.49710838 2.49907766 2.50104725 2.50301714 2.50498735
 2.50695786 2.50892869 2.51089982 2.51287127 2.51484304 2.51681512
 2.51878751 2.52076023 2.52273326 2.5247066  2.52668027 2.52865426
 2.53062858 2.53260321 2.53457817 2.53655345 2.53852906 2.540505
 2.54248126 2.54445785 2.54643477 2.54841203 2.55038961 2.55236752
 2.55434577 2.55632436 2.55830328 2.56028253 2.56226213 2.56424206
 2.56622233 2.56820294 2.57018389 2.57216519 2.57414682 2.5761288
 2.57811113 2.5800938  2.58207682 2.58406019]
t = [1.06996404e+09 1.06996407e+09 1.06996411e+09 1.06996415e+09
 1.06996418e+09 1.06996422e+09 1.06996426e+09 1.06996429e+09
 1.06996433e+09 1.06996437e+09 1.06996440e+09 1.06996444e+09
 1.06996448e+09 1.06996451e+09 1.06996455e+09 1.06996459e+09
 1.06996462e+09 1.06996466e+09 1.06996470e+09 1.06996473e+09
 1.06996477e+09 1.06996481e+09 1.06996484e+09 1.06996488e+09
 1.06996492e+09 1.06996495e+09 1.06996499e+09 1.06996503e+09
 1.06996506e+09 1.06996510e+09 1.06996514e+09 1.06996517e+09
 1.06996521e+09 1.06996525e+09 1.06996528e+09 1.06996532e+09
 1.06996536e+09 1.06996539e+09 1.06996543e+09 1.06996547e+09
 1.06996550e+09 1.06996554e+09 1.06996557e+09 1.06996561e+09
 1.06996565e+09 1.06996568e+09 1.06996572e+09 1.06996576e+09
 1.06996579e+09 1.06996583e+09 1.06996587e+09 1.06996590e+09
 1.06996594e+09 1.06996598e+09 1.06996601e+09 1.06996605e+09
 1.06996609e+09 1.06996612e+09 1.06996616e+09 1.06996620e+09
 1.06996623e+09 1.06996627e+09 1.06996631e+09 1.06996634e+09
 1.06996638e+09 1.06996642e+09 1.06996645e+09 1.06996649e+09
 1.06996653e+09 1.06996656e+09 1.06996660e+09 1.06996664e+09
 1.06996667e+09 1.06996671e+09 1.06996675e+09 1.06996678e+09
 1.06996682e+09 1.06996686e+09 1.06996689e+09 1.06996693e+09
 1.06996697e+09 1.06996700e+09 1.06996704e+09 1.06996708e+09
 1.06996711e+09 1.06996715e+09 1.06996719e+09 1.06996722e+09
 1.06996726e+09 1.06996730e+09 1.06996733e+09 1.06996737e+09
 1.06996740e+09 1.06996744e+09 1.06996748e+09 1.06996751e+09
 1.06996755e+09 1.06996759e+09 1.06996762e+09 1.06996766e+09
 1.06996770e+09 1.06996773e+09 1.06996777e+09 1.06996781e+09
 1.06996784e+09 1.06996788e+09 1.06996792e+09 1.06996795e+09
 1.06996799e+09 1.06996803e+09 1.06996806e+09 1.06996810e+09
 1.06996814e+09 1.06996817e+09 1.06996821e+09 1.06996825e+09
 1.06996828e+09 1.06996832e+09 1.06996836e+09 1.06996839e+09
 1.06996843e+09 1.06996847e+09 1.06996850e+09 1.06996854e+09
 1.06996858e+09 1.06996861e+09 1.06996865e+09 1.06996869e+09
 1.06996872e+09 1.06996876e+09 1.06996880e+09 1.06996883e+09
 1.06996887e+09 1.06996891e+09 1.06996894e+09 1.06996898e+09
 1.06996902e+09 1.06996905e+09 1.06996909e+09 1.06996912e+09
 1.06996916e+09 1.06996920e+09 1.06996923e+09 1.06996927e+09
 1.06996931e+09 1.06996934e+09 1.06996938e+09 1.06996942e+09
 1.06996945e+09 1.06996949e+09 1.06996953e+09 1.06996956e+09
 1.06996960e+09 1.06996964e+09 1.06996967e+09 1.06996971e+09
 1.06996975e+09 1.06996978e+09 1.06996982e+09 1.06996986e+09
 1.06996989e+09 1.06996993e+09 1.06996997e+09 1.06997000e+09
 1.06997004e+09 1.06997008e+09 1.06997011e+09 1.06997015e+09
 1.06997019e+09 1.06997022e+09 1.06997026e+09 1.06997030e+09
 1.06997033e+09 1.06997037e+09 1.06997041e+09 1.06997044e+09
 1.06997048e+09 1.06997052e+09 1.06997055e+09 1.06997059e+09
 1.06997063e+09 1.06997066e+09 1.06997070e+09 1.06997074e+09
 1.06997077e+09 1.06997081e+09 1.06997085e+09 1.06997088e+09
 1.06997092e+09 1.06997095e+09 1.06997099e+09 1.06997103e+09
 1.06997106e+09 1.06997110e+09 1.06997114e+09 1.06997117e+09
 1.06997121e+09 1.06997125e+09 1.06997128e+09 1.06997132e+09
 1.06997136e+09 1.06997139e+09 1.06997143e+09 1.06997147e+09
 1.06997150e+09 1.06997154e+09 1.06997158e+09 1.06997161e+09
 1.06997165e+09 1.06997169e+09 1.06997172e+09 1.06997176e+09
 1.06997180e+09 1.06997183e+09 1.06997187e+09 1.06997191e+09
 1.06997194e+09 1.06997198e+09 1.06997202e+09 1.06997205e+09
 1.06997209e+09 1.06997213e+09 1.06997216e+09 1.06997220e+09
 1.06997224e+09 1.06997227e+09 1.06997231e+09 1.06997235e+09
 1.06997238e+09 1.06997242e+09 1.06997246e+09 1.06997249e+09
 1.06997253e+09 1.06997257e+09 1.06997260e+09 1.06997264e+09
 1.06997268e+09 1.06997271e+09 1.06997275e+09 1.06997278e+09
 1.06997282e+09 1.06997286e+09 1.06997289e+09 1.06997293e+09
 1.06997297e+09 1.06997300e+09 1.06997304e+09 1.06997308e+09
 1.06997311e+09 1.06997315e+09 1.06997319e+09 1.06997322e+09
 1.06997326e+09 1.06997330e+09 1.06997333e+09 1.06997337e+09
 1.06997341e+09 1.06997344e+09 1.06997348e+09 1.06997352e+09
 1.06997355e+09 1.06997359e+09 1.06997363e+09 1.06997366e+09
 1.06997370e+09 1.06997374e+09 1.06997377e+09 1.06997381e+09
 1.06997385e+09 1.06997388e+09 1.06997392e+09 1.06997396e+09
 1.06997399e+09 1.06997403e+09 1.06997407e+09 1.06997410e+09
 1.06997414e+09 1.06997418e+09 1.06997421e+09 1.06997425e+09
 1.06997429e+09 1.06997432e+09 1.06997436e+09 1.06997440e+09
 1.06997443e+09 1.06997447e+09 1.06997451e+09 1.06997454e+09
 1.06997458e+09 1.06997461e+09 1.06997465e+09 1.06997469e+09
 1.06997472e+09 1.06997476e+09 1.06997480e+09 1.06997483e+09
 1.06997487e+09 1.06997491e+09 1.06997494e+09 1.06997498e+09
 1.06997502e+09 1.06997505e+09 1.06997509e+09 1.06997513e+09
 1.06997516e+09 1.06997520e+09 1.06997524e+09 1.06997527e+09
 1.06997531e+09 1.06997535e+09 1.06997538e+09 1.06997542e+09
 1.06997546e+09 1.06997549e+09 1.06997553e+09 1.06997557e+09
 1.06997560e+09 1.06997564e+09 1.06997568e+09 1.06997571e+09
 1.06997575e+09 1.06997579e+09 1.06997582e+09 1.06997586e+09
 1.06997590e+09 1.06997593e+09 1.06997597e+09 1.06997601e+09
 1.06997604e+09 1.06997608e+09 1.06997612e+09 1.06997615e+09
 1.06997619e+09 1.06997623e+09 1.06997626e+09 1.06997630e+09
 1.06997633e+09 1.06997637e+09 1.06997641e+09 1.06997644e+09
 1.06997648e+09 1.06997652e+09 1.06997655e+09 1.06997659e+09
 1.06997663e+09 1.06997666e+09 1.06997670e+09 1.06997674e+09
 1.06997677e+09 1.06997681e+09 1.06997685e+09 1.06997688e+09
 1.06997692e+09 1.06997696e+09 1.06997699e+09 1.06997703e+09
 1.06997707e+09 1.06997710e+09 1.06997714e+09 1.06997718e+09
 1.06997721e+09 1.06997725e+09 1.06997729e+09 1.06997732e+09
 1.06997736e+09 1.06997740e+09 1.06997743e+09 1.06997747e+09
 1.06997751e+09 1.06997754e+09 1.06997758e+09 1.06997762e+09
 1.06997765e+09 1.06997769e+09 1.06997773e+09 1.06997776e+09
 1.06997780e+09 1.06997784e+09 1.06997787e+09 1.06997791e+09
 1.06997795e+09 1.06997798e+09 1.06997802e+09 1.06997806e+09
 1.06997809e+09 1.06997813e+09 1.06997816e+09 1.06997820e+09
 1.06997824e+09 1.06997827e+09 1.06997831e+09 1.06997835e+09
 1.06997838e+09 1.06997842e+09 1.06997846e+09 1.06997849e+09
 1.06997853e+09 1.06997857e+09 1.06997860e+09 1.06997864e+09
 1.06997868e+09 1.06997871e+09 1.06997875e+09 1.06997879e+09
 1.06997882e+09 1.06997886e+09 1.06997890e+09 1.06997893e+09
 1.06997897e+09 1.06997901e+09 1.06997904e+09 1.06997908e+09
 1.06997912e+09 1.06997915e+09 1.06997919e+09 1.06997923e+09
 1.06997926e+09 1.06997930e+09 1.06997934e+09 1.06997937e+09
 1.06997941e+09 1.06997945e+09 1.06997948e+09 1.06997952e+09
 1.06997956e+09 1.06997959e+09 1.06997963e+09 1.06997967e+09
 1.06997970e+09 1.06997974e+09 1.06997978e+09 1.06997981e+09
 1.06997985e+09 1.06997989e+09 1.06997992e+09 1.06997996e+09
 1.06997999e+09 1.06998003e+09 1.06998007e+09 1.06998010e+09
 1.06998014e+09 1.06998018e+09 1.06998021e+09 1.06998025e+09
 1.06998029e+09 1.06998032e+09 1.06998036e+09 1.06998040e+09
 1.06998043e+09 1.06998047e+09 1.06998051e+09 1.06998054e+09
 1.06998058e+09 1.06998062e+09 1.06998065e+09 1.06998069e+09
 1.06998073e+09 1.06998076e+09 1.06998080e+09 1.06998084e+09
 1.06998087e+09 1.06998091e+09 1.06998095e+09 1.06998098e+09
 1.06998102e+09 1.06998106e+09 1.06998109e+09 1.06998113e+09
 1.06998117e+09 1.06998120e+09 1.06998124e+09 1.06998128e+09
 1.06998131e+09 1.06998135e+09 1.06998139e+09 1.06998142e+09
 1.06998146e+09 1.06998150e+09 1.06998153e+09 1.06998157e+09
 1.06998161e+09 1.06998164e+09 1.06998168e+09 1.06998172e+09
 1.06998175e+09 1.06998179e+09 1.06998182e+09 1.06998186e+09
 1.06998190e+09 1.06998193e+09 1.06998197e+09 1.06998201e+09
 1.06998204e+09 1.06998208e+09 1.06998212e+09 1.06998215e+09
 1.06998219e+09 1.06998223e+09 1.06998226e+09 1.06998230e+09
 1.06998234e+09 1.06998237e+09 1.06998241e+09 1.06998245e+09
 1.06998248e+09 1.06998252e+09 1.06998256e+09 1.06998259e+09
 1.06998263e+09 1.06998267e+09 1.06998270e+09 1.06998274e+09
 1.06998278e+09 1.06998281e+09 1.06998285e+09 1.06998289e+09
 1.06998292e+09 1.06998296e+09 1.06998300e+09 1.06998303e+09
 1.06998307e+09 1.06998311e+09 1.06998314e+09 1.06998318e+09
 1.06998322e+09 1.06998325e+09 1.06998329e+09 1.06998333e+09
 1.06998336e+09 1.06998340e+09 1.06998344e+09 1.06998347e+09
 1.06998351e+09 1.06998355e+09 1.06998358e+09 1.06998362e+09
 1.06998365e+09 1.06998369e+09 1.06998373e+09 1.06998376e+09
 1.06998380e+09 1.06998384e+09 1.06998387e+09 1.06998391e+09
 1.06998395e+09 1.06998398e+09 1.06998402e+09 1.06998406e+09
 1.06998409e+09 1.06998413e+09 1.06998417e+09 1.06998420e+09
 1.06998424e+09 1.06998428e+09 1.06998431e+09 1.06998435e+09
 1.06998439e+09 1.06998442e+09 1.06998446e+09 1.06998450e+09
 1.06998453e+09 1.06998457e+09 1.06998461e+09 1.06998464e+09
