name =JUICE_ROI_GAN_2_0_07
flyby = ['2033 NOV 26 18:22:11', '2033 NOV 27 18:22:11']
Observation TW = <SpiceCell dtype = 1, length = 0, size = 3200, card = 12, is_set = 1, adjust = 0, init = 1, base = 94906439568896, data = 94906439568944>
Res(t) = [0.24084261 0.23948939 0.23841458 0.23758597 0.23697625 0.23656206
 0.23632336 0.23624278 0.23630525 0.23649757 0.23680815 0.23722679
 0.23774441 0.23835297 0.23904529 0.23981491 0.24065607 0.24156354
 0.24253261 0.243559   0.24463884 0.24576859 0.24694501 0.24816515
 0.24942631 0.25072599 0.25206189 0.25343192 0.25483411 0.25626665
 0.25772788 0.25921623 0.26073026 0.26226864 0.26383009 0.26541346
 0.26701764 0.26864162 0.27028444 0.2719452  0.27362306 0.27531721
 0.27702693 0.2787515  0.28049026 0.2822426  0.28400792 0.28578566
 0.2875753  0.28937634 0.29118832 0.29301077 0.29484329 0.29668546
 0.29853691 0.30039727 0.3022662  0.30414336 0.30602845 0.30792117
 0.30982123 0.31172837 0.31364232 0.31556283 0.31748968 0.31942264
 0.32136148 0.32330601 0.32525603 0.32721135 0.32917178 0.33113716
 0.33310732 0.33508209 0.33706133 0.33904489 0.34103263 0.3430244
 0.34502009 0.34701957 0.34902271 0.3510294  0.35303953 0.35505298
 0.35706967 0.35908949 0.36111233 0.36313812 0.36516675 0.36719815
 0.36923224 0.37126892 0.37330812 0.37534978 0.37739381 0.37944015
 0.38148873 0.38353948 0.38559235 0.38764727 0.38970418 0.39176302
 0.39382375 0.3958863  0.39795063 0.40001668 0.40208441 0.40415377
 0.40622472 0.4082972  0.41037119 0.41244663 0.41452348 0.41660172
 0.41868129 0.42076217 0.42284431 0.42492769 0.42701227 0.42909801
 0.43118489 0.43327288 0.43536194 0.43745205 0.43954318 0.4416353
 0.44372839 0.44582241 0.44791735 0.45001318 0.45210987 0.45420741
 0.45630577 0.45840493 0.46050487 0.46260556 0.46470699 0.46680914
 0.46891199 0.47101552 0.47311971 0.47522455 0.47733001 0.47943609
 0.48154276 0.48365001 0.48575782 0.48786618 0.48997508 0.4920845
 0.49419443 0.49630485 0.49841574 0.50052711 0.50263893 0.5047512
 0.50686389 0.50897701 0.51109053 0.51320445 0.51531876 0.51743344
 0.51954849 0.5216639  0.52377965 0.52589574 0.52801216 0.53012889
 0.53224594 0.53436329 0.53648093 0.53859886 0.54071707 0.54283554
 0.54495428 0.54707327 0.54919251 0.551312   0.55343171 0.55555166
 0.55767182 0.5597922  0.56191279 0.56403358 0.56615457 0.56827575
 0.57039711 0.57251866 0.57464038 0.57676226 0.57888432 0.58100653
 0.5831289  0.58525142 0.58737408 0.58949689 0.59161983 0.5937429
 0.59586611 0.59798943 0.60011288 0.60223645 0.60436013 0.60648391
 0.60860781 0.6107318  0.6128559  0.61498009 0.61710437 0.61922874
 0.6213532  0.62347775 0.62560237 0.62772707 0.62985185 0.6319767
 0.63410162 0.6362266  0.63835166 0.64047677 0.64260195 0.64472718
 0.64685247 0.64897781 0.6511032  0.65322865 0.65535414 0.65747968
 0.65960526 0.66173089 0.66385655 0.66598226 0.668108   0.67023378
 0.67235959 0.67448543 0.67661131 0.67873721 0.68086315 0.68298911
 0.6851151  0.68724111 0.68936715 0.69149321 0.69361929 0.69574539
 0.69787151 0.69999765 0.70212381 0.70424998 0.70637617 0.70850238
 0.71062859 0.71275483 0.71488107 0.71700733 0.7191336  0.72125988
 0.72338616 0.72551246 0.72763877 0.72976509 0.73189141 0.73401774
 0.73614408 0.73827043 0.74039678 0.74252314 0.74464951 0.74677588
 0.74890225 0.75102863 0.75315502 0.75528141 0.7574078  0.7595342
 0.7616606  0.76378701 0.76591342 0.76803984 0.77016625 0.77229268
 0.7744191  0.77654553 0.77867197 0.7807984  0.78292485 0.78505129
 0.78717774 0.7893042  0.79143066 0.79355712 0.79568359 0.79781006
 0.79993654 0.80206302 0.80418951 0.80631601 0.80844251 0.81056902
 0.81269554 0.81482206 0.81694859 0.81907513 0.82120168 0.82332823
 0.8254548  0.82758137 0.82970795 0.83183455 0.83396115 0.83608777
 0.8382144  0.84034104 0.84246769 0.84459435 0.84672103 0.84884773
 0.85097444 0.85310116 0.8552279  0.85735465 0.85948143 0.86160822
 0.86373503 0.86586185 0.8679887  0.87011557 0.87224245 0.87436936
 0.87649629 0.87862325 0.88075022 0.88287723 0.88500425 0.8871313
 0.88925838 0.89138548 0.89351262 0.89563978 0.89776697 0.89989419
 0.90202144 0.90414872 0.90627603 0.90840338 0.91053076 0.91265817
 0.91478562 0.91691311 0.91904063 0.92116819 0.92329579 0.92542343
 0.92755111 0.92967884 0.9318066  0.93393441 0.93606226 0.93819015
 0.94031809 0.94244608 0.94457411 0.94670219 0.94883033 0.95095851
 0.95308674 0.95521503 0.95734336 0.95947176 0.9616002  0.96372871
 0.96585726 0.96798588 0.97011456 0.97224329 0.97437209 0.97650094
 0.97862986 0.98075884 0.98288789 0.985017   0.98714618 0.98927543
 0.99140475 0.99353413 0.99566359 0.99779311 0.99992271 1.00205238
 1.00418213 1.00631196 1.00844186 1.01057183 1.01270189 1.01483203
 1.01696224 1.01909254 1.02122293 1.02335339 1.02548395 1.02761458
 1.02974531 1.03187612 1.03400703 1.03613802 1.03826911 1.04040029
 1.04253156 1.04466293 1.04679439 1.04892595 1.05105761 1.05318937
 1.05532123 1.05745319 1.05958526 1.06171742 1.0638497  1.06598208
 1.06811456 1.07024716 1.07237986 1.07451268 1.07664561 1.07877865
 1.0809118  1.08304507 1.08517846 1.08731196 1.08944559 1.09157933
 1.0937132  1.09584718 1.09798129 1.10011553 1.10224989 1.10438438
 1.106519   1.10865374 1.11078862 1.11292363 1.11505877 1.11719405
 1.11932946 1.12146501 1.12360069 1.12573652 1.12787248 1.13000859
 1.13214484 1.13428123 1.13641777 1.13855445 1.14069128 1.14282826
 1.14496539 1.14710267 1.14924011 1.15137769 1.15351544 1.15565333
 1.15779139 1.1599296  1.16206798 1.16420651 1.16634521 1.16848407
 1.17062309 1.17276228 1.17490164 1.17704116 1.17918086 1.18132072
 1.18346076 1.18560097 1.18774136 1.18988192 1.19202266 1.19416358
 1.19630468 1.19844595 1.20058741 1.20272906 1.20487089 1.2070129
 1.2091551  1.21129749 1.21344007 1.21558284 1.21772581 1.21986896
 1.22201231 1.22415586 1.2262996  1.22844355 1.23058769 1.23273204
 1.23487658 1.23702133 1.23916629 1.24131145 1.24345682 1.2456024
 1.24774819 1.24989419 1.2520404  1.25418683 1.25633347 1.25848033
 1.2606274  1.2627747  1.26492222 1.26706996 1.26921792 1.2713661
 1.27351451 1.27566315 1.27781202 1.27996111 1.28211044 1.28426
 1.28640979 1.28855982 1.29071009 1.29286059 1.29501133 1.29716231
 1.29931353 1.30146499 1.3036167  1.30576865 1.30792085 1.3100733
 1.312226   1.31437895 1.31653215 1.3186856  1.3208393  1.32299327
 1.32514749 1.32730197 1.3294567  1.3316117  1.33376697 1.33592249
 1.33807828 1.34023434 1.34239066 1.34454726 1.34670412 1.34886126
 1.35101866 1.35317635 1.35533431 1.35749254 1.35965106 1.36180985
 1.36396892 1.36612828 1.36828792 1.37044785 1.37260806 1.37476856
 1.37692935 1.37909043 1.3812518  1.38341346 1.38557542 1.38773767
 1.38990022 1.39206307 1.39422622 1.39638967 1.39855342 1.40071748
 1.40288184 1.40504651 1.40721148 1.40937677 1.41154236 1.41370827
 1.41587449 1.41804102 1.42020787 1.42237504 1.42454253 1.42671033
 1.42887846 1.43104691 1.43321568 1.43538478 1.4375542  1.43972396
 1.44189404 1.44406445 1.4462352  1.44840628 1.45057769 1.45274944
 1.45492153 1.45709395 1.45926672 1.46143983 1.46361328 1.46578707
 1.46796121 1.4701357  1.47231053 1.47448572 1.47666125 1.47883714
 1.48101338 1.48318998 1.48536693 1.48754424 1.48972191 1.49189994
 1.49407834 1.49625709 1.49843621 1.5006157  1.50279555 1.50497578
 1.50715637 1.50933733 1.51151867 1.51370038 1.51588246 1.51806493
 1.52024777 1.52243099 1.52461459 1.52679858 1.52898294 1.5311677
 1.53335284 1.53553836 1.53772428 1.53991059 1.54209728 1.54428438
 1.54647186 1.54865975 1.55084803 1.5530367  1.55522578 1.55741526
 1.55960515 1.56179543 1.56398613 1.56617723 1.56836873 1.57056065
 1.57275298 1.57494572 1.57713888 1.57933245 1.58152643 1.58372084
 1.58591566 1.58811091 1.59030657 1.59250266 1.59469918 1.59689612
 1.59909349 1.60129129 1.60348951 1.60568817 1.60788727 1.61008679
 1.61228675 1.61448715 1.61668799 1.61888927 1.62109099 1.62329315
 1.62549576 1.62769881 1.62990231 1.63210626 1.63431065 1.6365155
 1.6387208  1.64092655 1.64313276 1.64533942 1.64754655 1.64975413
 1.65196217 1.65417067 1.65637964 1.65858907 1.66079897 1.66300934
 1.66522017 1.66743148 1.66964325 1.6718555  1.67406823 1.67628143
 1.6784951  1.68070926 1.68292389 1.68513901 1.68735461 1.68957069
 1.69178726 1.69400432 1.69622186 1.69843989 1.70065842 1.70287743
 1.70509694 1.70731695 1.70953745 1.71175845 1.71397995 1.71620195
 1.71842445 1.72064745 1.72287096 1.72509498 1.7273195  1.72954453
 1.73177007 1.73399613 1.73622269 1.73844978 1.74067737 1.74290549
 1.74513412 1.74736327 1.74959295 1.75182315 1.75405387 1.75628511
 1.75851689 1.76074919 1.76298202 1.76521539 1.76744928 1.76968371
 1.77191867 1.77415418 1.77639021 1.77862679 1.78086391 1.78310157
 1.78533978 1.78757853 1.78981782 1.79205767 1.79429806 1.796539
 1.7987805  1.80102255 1.80326515 1.80550831 1.80775203 1.8099963
 1.81224114 1.81448653 1.81673249 1.81897902 1.82122611 1.82347377
 1.82572199 1.82797079 1.83022015 1.83247009 1.83472061 1.8369717
 1.83922336 1.8414756  1.84372843 1.84598183 1.84823582 1.85049039
 1.85274555 1.85500129 1.85725762 1.85951454 1.86177205 1.86403015
 1.86628884 1.86854813 1.87080802 1.87306851 1.87532959 1.87759127
 1.87985356 1.88211645 1.88437994 1.88664404 1.88890875 1.89117406
 1.89343999 1.89570652 1.89797367 1.90024144 1.90250982 1.90477881
 1.90704843 1.90931866 1.91158952 1.913861   1.9161331  1.91840583
 1.92067918 1.92295317 1.92522778 1.92750302 1.9297789  1.93205541
 1.93433255 1.93661033 1.93888875 1.94116781 1.94344751 1.94572785
 1.94800883 1.95029046 1.95257274 1.95485566 1.95713923 1.95942346
 1.96170833 1.96399386 1.96628004 1.96856688 1.97085437 1.97314253
 1.97543134 1.97772081 1.98001095 1.98230175 1.98459322 1.98688536
 1.98917816 1.99147163 1.99376578 1.9960606  1.99835609 2.00065225
 2.0029491  2.00524662 2.00754482 2.0098437  2.01214326 2.01444351
 2.01674444 2.01904606 2.02134837 2.02365137 2.02595505 2.02825943
 2.0305645  2.03287027 2.03517673 2.03748389 2.03979175 2.04210031
 2.04440958 2.04671954 2.04903021 2.05134159 2.05365367 2.05596646
 2.05827996 2.06059417 2.0629091  2.06522474 2.06754109 2.06985817
 2.07217596 2.07449447 2.0768137  2.07913365 2.08145433 2.08377573
 2.08609786 2.08842072 2.09074431 2.09306863 2.09539368 2.09771946
 2.10004598 2.10237324 2.10470123 2.10702996 2.10935944 2.11168965
 2.11402061 2.11635232 2.11868476 2.12101796 2.12335191 2.1256866
 2.12802205 2.13035825 2.13269521 2.13503292 2.13737139 2.13971061
 2.1420506  2.14439135 2.14673286 2.14907513 2.15141818 2.15376198
 2.15610656 2.1584519  2.16079802 2.16314491 2.16549257 2.16784101
 2.17019023 2.17254022 2.17489099 2.17724254 2.17959488 2.181948
 2.1843019  2.18665659 2.18901207 2.19136833 2.19372539 2.19608324
 2.19844188 2.20080132 2.20316155 2.20552258 2.20788441 2.21024704
 2.21261047 2.2149747  2.21733974 2.21970558 2.22207223 2.22443969
 2.22680796 2.22917704 2.23154693 2.23391764 2.23628916 2.2386615
 2.24103466 2.24340863 2.24578343 2.24815905 2.25053549 2.25291276
 2.25529086 2.25766978 2.26004953 2.26243011 2.26481153 2.26719378
 2.26957686 2.27196078 2.27434553 2.27673113 2.27911756 2.28150484
 2.28389296 2.28628193 2.28867174 2.29106239 2.2934539  2.29584625
 2.29823946 2.30063352 2.30302844 2.30542421 2.30782083 2.31021832
 2.31261666 2.31501587 2.31741593 2.31981687 2.32221866 2.32462133
 2.32702486 2.32942926 2.33183453 2.33424067 2.33664769 2.33905558
 2.34146435 2.34387399 2.34628452 2.34869592 2.35110821 2.35352138
 2.35593543 2.35835037 2.3607662  2.36318291]
t = [1.06995981e+09 1.06995985e+09 1.06995989e+09 1.06995993e+09
 1.06995997e+09 1.06996001e+09 1.06996005e+09 1.06996010e+09
 1.06996014e+09 1.06996018e+09 1.06996022e+09 1.06996026e+09
 1.06996030e+09 1.06996034e+09 1.06996038e+09 1.06996042e+09
 1.06996046e+09 1.06996050e+09 1.06996054e+09 1.06996059e+09
 1.06996063e+09 1.06996067e+09 1.06996071e+09 1.06996075e+09
 1.06996079e+09 1.06996083e+09 1.06996087e+09 1.06996091e+09
 1.06996095e+09 1.06996099e+09 1.06996103e+09 1.06996108e+09
 1.06996112e+09 1.06996116e+09 1.06996120e+09 1.06996124e+09
 1.06996128e+09 1.06996132e+09 1.06996136e+09 1.06996140e+09
 1.06996144e+09 1.06996148e+09 1.06996152e+09 1.06996157e+09
 1.06996161e+09 1.06996165e+09 1.06996169e+09 1.06996173e+09
 1.06996177e+09 1.06996181e+09 1.06996185e+09 1.06996189e+09
 1.06996193e+09 1.06996197e+09 1.06996201e+09 1.06996206e+09
 1.06996210e+09 1.06996214e+09 1.06996218e+09 1.06996222e+09
 1.06996226e+09 1.06996230e+09 1.06996234e+09 1.06996238e+09
 1.06996242e+09 1.06996246e+09 1.06996250e+09 1.06996255e+09
 1.06996259e+09 1.06996263e+09 1.06996267e+09 1.06996271e+09
 1.06996275e+09 1.06996279e+09 1.06996283e+09 1.06996287e+09
 1.06996291e+09 1.06996295e+09 1.06996299e+09 1.06996304e+09
 1.06996308e+09 1.06996312e+09 1.06996316e+09 1.06996320e+09
 1.06996324e+09 1.06996328e+09 1.06996332e+09 1.06996336e+09
 1.06996340e+09 1.06996344e+09 1.06996348e+09 1.06996353e+09
 1.06996357e+09 1.06996361e+09 1.06996365e+09 1.06996369e+09
 1.06996373e+09 1.06996377e+09 1.06996381e+09 1.06996385e+09
 1.06996389e+09 1.06996393e+09 1.06996397e+09 1.06996402e+09
 1.06996406e+09 1.06996410e+09 1.06996414e+09 1.06996418e+09
 1.06996422e+09 1.06996426e+09 1.06996430e+09 1.06996434e+09
 1.06996438e+09 1.06996442e+09 1.06996446e+09 1.06996451e+09
 1.06996455e+09 1.06996459e+09 1.06996463e+09 1.06996467e+09
 1.06996471e+09 1.06996475e+09 1.06996479e+09 1.06996483e+09
 1.06996487e+09 1.06996491e+09 1.06996495e+09 1.06996500e+09
 1.06996504e+09 1.06996508e+09 1.06996512e+09 1.06996516e+09
 1.06996520e+09 1.06996524e+09 1.06996528e+09 1.06996532e+09
 1.06996536e+09 1.06996540e+09 1.06996544e+09 1.06996549e+09
 1.06996553e+09 1.06996557e+09 1.06996561e+09 1.06996565e+09
 1.06996569e+09 1.06996573e+09 1.06996577e+09 1.06996581e+09
 1.06996585e+09 1.06996589e+09 1.06996593e+09 1.06996598e+09
 1.06996602e+09 1.06996606e+09 1.06996610e+09 1.06996614e+09
 1.06996618e+09 1.06996622e+09 1.06996626e+09 1.06996630e+09
 1.06996634e+09 1.06996638e+09 1.06996642e+09 1.06996647e+09
 1.06996651e+09 1.06996655e+09 1.06996659e+09 1.06996663e+09
 1.06996667e+09 1.06996671e+09 1.06996675e+09 1.06996679e+09
 1.06996683e+09 1.06996687e+09 1.06996691e+09 1.06996696e+09
 1.06996700e+09 1.06996704e+09 1.06996708e+09 1.06996712e+09
 1.06996716e+09 1.06996720e+09 1.06996724e+09 1.06996728e+09
 1.06996732e+09 1.06996736e+09 1.06996740e+09 1.06996745e+09
 1.06996749e+09 1.06996753e+09 1.06996757e+09 1.06996761e+09
 1.06996765e+09 1.06996769e+09 1.06996773e+09 1.06996777e+09
 1.06996781e+09 1.06996785e+09 1.06996789e+09 1.06996794e+09
 1.06996798e+09 1.06996802e+09 1.06996806e+09 1.06996810e+09
 1.06996814e+09 1.06996818e+09 1.06996822e+09 1.06996826e+09
 1.06996830e+09 1.06996834e+09 1.06996838e+09 1.06996842e+09
 1.06996847e+09 1.06996851e+09 1.06996855e+09 1.06996859e+09
 1.06996863e+09 1.06996867e+09 1.06996871e+09 1.06996875e+09
 1.06996879e+09 1.06996883e+09 1.06996887e+09 1.06996891e+09
 1.06996896e+09 1.06996900e+09 1.06996904e+09 1.06996908e+09
 1.06996912e+09 1.06996916e+09 1.06996920e+09 1.06996924e+09
 1.06996928e+09 1.06996932e+09 1.06996936e+09 1.06996940e+09
 1.06996945e+09 1.06996949e+09 1.06996953e+09 1.06996957e+09
 1.06996961e+09 1.06996965e+09 1.06996969e+09 1.06996973e+09
 1.06996977e+09 1.06996981e+09 1.06996985e+09 1.06996989e+09
 1.06996994e+09 1.06996998e+09 1.06997002e+09 1.06997006e+09
 1.06997010e+09 1.06997014e+09 1.06997018e+09 1.06997022e+09
 1.06997026e+09 1.06997030e+09 1.06997034e+09 1.06997038e+09
 1.06997043e+09 1.06997047e+09 1.06997051e+09 1.06997055e+09
 1.06997059e+09 1.06997063e+09 1.06997067e+09 1.06997071e+09
 1.06997075e+09 1.06997079e+09 1.06997083e+09 1.06997087e+09
 1.06997092e+09 1.06997096e+09 1.06997100e+09 1.06997104e+09
 1.06997108e+09 1.06997112e+09 1.06997116e+09 1.06997120e+09
 1.06997124e+09 1.06997128e+09 1.06997132e+09 1.06997136e+09
 1.06997141e+09 1.06997145e+09 1.06997149e+09 1.06997153e+09
 1.06997157e+09 1.06997161e+09 1.06997165e+09 1.06997169e+09
 1.06997173e+09 1.06997177e+09 1.06997181e+09 1.06997185e+09
 1.06997190e+09 1.06997194e+09 1.06997198e+09 1.06997202e+09
 1.06997206e+09 1.06997210e+09 1.06997214e+09 1.06997218e+09
 1.06997222e+09 1.06997226e+09 1.06997230e+09 1.06997234e+09
 1.06997239e+09 1.06997243e+09 1.06997247e+09 1.06997251e+09
 1.06997255e+09 1.06997259e+09 1.06997263e+09 1.06997267e+09
 1.06997271e+09 1.06997275e+09 1.06997279e+09 1.06997283e+09
 1.06997288e+09 1.06997292e+09 1.06997296e+09 1.06997300e+09
 1.06997304e+09 1.06997308e+09 1.06997312e+09 1.06997316e+09
 1.06997320e+09 1.06997324e+09 1.06997328e+09 1.06997332e+09
 1.06997337e+09 1.06997341e+09 1.06997345e+09 1.06997349e+09
 1.06997353e+09 1.06997357e+09 1.06997361e+09 1.06997365e+09
 1.06997369e+09 1.06997373e+09 1.06997377e+09 1.06997381e+09
 1.06997386e+09 1.06997390e+09 1.06997394e+09 1.06997398e+09
 1.06997402e+09 1.06997406e+09 1.06997410e+09 1.06997414e+09
 1.06997418e+09 1.06997422e+09 1.06997426e+09 1.06997430e+09
 1.06997435e+09 1.06997439e+09 1.06997443e+09 1.06997447e+09
 1.06997451e+09 1.06997455e+09 1.06997459e+09 1.06997463e+09
 1.06997467e+09 1.06997471e+09 1.06997475e+09 1.06997479e+09
 1.06997484e+09 1.06997488e+09 1.06997492e+09 1.06997496e+09
 1.06997500e+09 1.06997504e+09 1.06997508e+09 1.06997512e+09
 1.06997516e+09 1.06997520e+09 1.06997524e+09 1.06997528e+09
 1.06997533e+09 1.06997537e+09 1.06997541e+09 1.06997545e+09
 1.06997549e+09 1.06997553e+09 1.06997557e+09 1.06997561e+09
 1.06997565e+09 1.06997569e+09 1.06997573e+09 1.06997577e+09
 1.06997582e+09 1.06997586e+09 1.06997590e+09 1.06997594e+09
 1.06997598e+09 1.06997602e+09 1.06997606e+09 1.06997610e+09
 1.06997614e+09 1.06997618e+09 1.06997622e+09 1.06997626e+09
 1.06997631e+09 1.06997635e+09 1.06997639e+09 1.06997643e+09
 1.06997647e+09 1.06997651e+09 1.06997655e+09 1.06997659e+09
 1.06997663e+09 1.06997667e+09 1.06997671e+09 1.06997675e+09
 1.06997680e+09 1.06997684e+09 1.06997688e+09 1.06997692e+09
 1.06997696e+09 1.06997700e+09 1.06997704e+09 1.06997708e+09
 1.06997712e+09 1.06997716e+09 1.06997720e+09 1.06997724e+09
 1.06997729e+09 1.06997733e+09 1.06997737e+09 1.06997741e+09
 1.06997745e+09 1.06997749e+09 1.06997753e+09 1.06997757e+09
 1.06997761e+09 1.06997765e+09 1.06997769e+09 1.06997773e+09
 1.06997778e+09 1.06997782e+09 1.06997786e+09 1.06997790e+09
 1.06997794e+09 1.06997798e+09 1.06997802e+09 1.06997806e+09
 1.06997810e+09 1.06997814e+09 1.06997818e+09 1.06997822e+09
 1.06997827e+09 1.06997831e+09 1.06997835e+09 1.06997839e+09
 1.06997843e+09 1.06997847e+09 1.06997851e+09 1.06997855e+09
 1.06997859e+09 1.06997863e+09 1.06997867e+09 1.06997871e+09
 1.06997876e+09 1.06997880e+09 1.06997884e+09 1.06997888e+09
 1.06997892e+09 1.06997896e+09 1.06997900e+09 1.06997904e+09
 1.06997908e+09 1.06997912e+09 1.06997916e+09 1.06997920e+09
 1.06997925e+09 1.06997929e+09 1.06997933e+09 1.06997937e+09
 1.06997941e+09 1.06997945e+09 1.06997949e+09 1.06997953e+09
 1.06997957e+09 1.06997961e+09 1.06997965e+09 1.06997969e+09
 1.06997974e+09 1.06997978e+09 1.06997982e+09 1.06997986e+09
 1.06997990e+09 1.06997994e+09 1.06997998e+09 1.06998002e+09
 1.06998006e+09 1.06998010e+09 1.06998014e+09 1.06998018e+09
 1.06998023e+09 1.06998027e+09 1.06998031e+09 1.06998035e+09
 1.06998039e+09 1.06998043e+09 1.06998047e+09 1.06998051e+09
 1.06998055e+09 1.06998059e+09 1.06998063e+09 1.06998067e+09
 1.06998072e+09 1.06998076e+09 1.06998080e+09 1.06998084e+09
 1.06998088e+09 1.06998092e+09 1.06998096e+09 1.06998100e+09
 1.06998104e+09 1.06998108e+09 1.06998112e+09 1.06998116e+09
 1.06998121e+09 1.06998125e+09 1.06998129e+09 1.06998133e+09
 1.06998137e+09 1.06998141e+09 1.06998145e+09 1.06998149e+09
 1.06998153e+09 1.06998157e+09 1.06998161e+09 1.06998165e+09
 1.06998170e+09 1.06998174e+09 1.06998178e+09 1.06998182e+09
 1.06998186e+09 1.06998190e+09 1.06998194e+09 1.06998198e+09
 1.06998202e+09 1.06998206e+09 1.06998210e+09 1.06998214e+09
 1.06998219e+09 1.06998223e+09 1.06998227e+09 1.06998231e+09
 1.06998235e+09 1.06998239e+09 1.06998243e+09 1.06998247e+09
 1.06998251e+09 1.06998255e+09 1.06998259e+09 1.06998263e+09
 1.06998268e+09 1.06998272e+09 1.06998276e+09 1.06998280e+09
