name =JUICE_ROI_GAN_2_0_05
flyby = ['2034 SEP 07 06:03:51', '2034 SEP 08 06:03:51']
Observation TW = <SpiceCell dtype = 1, length = 0, size = 3200, card = 12, is_set = 1, adjust = 0, init = 1, base = 94725110654112, data = 94725110654160>
Res(t) = [1.1669486  1.16642801 1.16590961 1.16539341 1.16487939 1.16436757
 1.16385793 1.16335049 1.16284523 1.16234217 1.16184129 1.1613426
 1.1608461  1.16035178 1.15985965 1.15936971 1.15888195 1.15839638
 1.15791299 1.15743179 1.15695276 1.15647593 1.15600127 1.15552879
 1.1550585  1.15459038 1.15412444 1.15366069 1.15319911 1.15273971
 1.15228248 1.15182743 1.15137456 1.15092386 1.15047534 1.15002898
 1.1495848  1.1491428  1.14870296 1.14826529 1.1478298  1.14739647
 1.14696531 1.14653631 1.14610948 1.14568482 1.14526232 1.14484199
 1.14442382 1.14400781 1.14359396 1.14318227 1.14277274 1.14236537
 1.14196016 1.1415571  1.1411562  1.14075745 1.14036086 1.13996642
 1.13957413 1.13918399 1.138796   1.13841016 1.13802647 1.13764492
 1.13726552 1.13688827 1.13651316 1.13614019 1.13576936 1.13540067
 1.13503412 1.13466971 1.13430743 1.13394729 1.13358929 1.13323342
 1.13287968 1.13252807 1.13217859 1.13183124 1.13148602 1.13114292
 1.13080195 1.1304631  1.13012638 1.12979178 1.12945929 1.12912893
 1.12880068 1.12847455 1.12815054 1.12782863 1.12750884 1.12719116
 1.12687559 1.12656213 1.12625078 1.12594153 1.12563438 1.12532934
 1.1250264  1.12472556 1.12442682 1.12413017 1.12383562 1.12354317
 1.1232528  1.12296453 1.12267835 1.12239425 1.12211225 1.12183232
 1.12155449 1.12127873 1.12100505 1.12073346 1.12046394 1.1201965
 1.11993113 1.11966783 1.11940661 1.11914745 1.11889037 1.11863535
 1.11838239 1.1181315  1.11788267 1.1176359  1.11739119 1.11714853
 1.11690793 1.11666938 1.11643288 1.11619844 1.11596604 1.11573568
 1.11550737 1.11528111 1.11505688 1.1148347  1.11461455 1.11439643
 1.11418036 1.11396631 1.11375429 1.1135443  1.11333634 1.1131304
 1.11292649 1.11272459 1.11252472 1.11232686 1.11213102 1.11193719
 1.11174538 1.11155557 1.11136777 1.11118197 1.11099818 1.11081639
 1.11063661 1.11045882 1.11028302 1.11010922 1.10993741 1.10976759
 1.10959976 1.10943392 1.10927006 1.10910818 1.10894828 1.10879036
 1.10863441 1.10848044 1.10832844 1.10817841 1.10803034 1.10788424
 1.10774011 1.10759793 1.10745772 1.10731946 1.10718316 1.1070488
 1.1069164  1.10678595 1.10665744 1.10653088 1.10640626 1.10628358
 1.10616283 1.10604402 1.10592714 1.1058122  1.10569918 1.10558809
 1.10547892 1.10537167 1.10526634 1.10516293 1.10506143 1.10496185
 1.10486418 1.10476841 1.10467455 1.10458259 1.10449253 1.10440437
 1.10431811 1.10423374 1.10415127 1.10407068 1.10399198 1.10391516
 1.10384022 1.10376717 1.10369599 1.10362668 1.10355925 1.10349369
 1.10342999 1.10336816 1.1033082  1.10325009 1.10319384 1.10313944
 1.1030869  1.10303621 1.10298736 1.10294037 1.10289521 1.10285189
 1.10281041 1.10277077 1.10273296 1.10269698 1.10266282 1.10263049
 1.10259999 1.1025713  1.10254443 1.10251937 1.10249613 1.1024747
 1.10245507 1.10243725 1.10242123 1.10240701 1.10239458 1.10238395
 1.10237511 1.10236806 1.10236279 1.10235931 1.10235761 1.10235768
 1.10235954 1.10236316 1.10236855 1.10237572 1.10238464 1.10239533
 1.10240778 1.10242198 1.10243794 1.10245565 1.1024751  1.10249631
 1.10251925 1.10254394 1.10257036 1.10259852 1.1026284  1.10266002
 1.10269337 1.10272843 1.10276522 1.10280373 1.10284395 1.10288589
 1.10292953 1.10297488 1.10302194 1.10307069 1.10312115 1.1031733
 1.10322714 1.10328267 1.10333989 1.10339879 1.10345938 1.10352164
 1.10358558 1.10365119 1.10371848 1.10378743 1.10385804 1.10393031
 1.10400425 1.10407984 1.10415708 1.10423597 1.10431651 1.10439869
 1.10448251 1.10456797 1.10465507 1.1047438  1.10483415 1.10492614
 1.10501975 1.10511498 1.10521182 1.10531028 1.10541036 1.10551204
 1.10561533 1.10572022 1.10582671 1.10593479 1.10604448 1.10615575
 1.10626861 1.10638305 1.10649908 1.10661669 1.10673587 1.10685663
 1.10697895 1.10710285 1.1072283  1.10735532 1.1074839  1.10761403
 1.10774572 1.10787895 1.10801373 1.10815005 1.10828791 1.10842731
 1.10856824 1.10871071 1.1088547  1.10900022 1.10914725 1.10929581
 1.10944588 1.10959747 1.10975057 1.10990517 1.11006127 1.11021888
 1.11037798 1.11053858 1.11070067 1.11086424 1.1110293  1.11119585
 1.11136387 1.11153337 1.11170434 1.11187678 1.11205069 1.11222606
 1.11240289 1.11258118 1.11276092 1.11294211 1.11312475 1.11330884
 1.11349437 1.11368134 1.11386974 1.11405957 1.11425084 1.11444353
 1.11463764 1.11483318 1.11503013 1.11522849 1.11542827 1.11562945
 1.11583204 1.11603603 1.11624142 1.1164482  1.11665637 1.11686594
 1.11707688 1.11728922 1.11750293 1.11771801 1.11793447 1.1181523
 1.1183715  1.11859206 1.11881399 1.11903726 1.1192619  1.11948788
 1.11971522 1.11994389 1.12017391 1.12040527 1.12063797 1.12087199
 1.12110735 1.12134403 1.12158204 1.12182136 1.122062   1.12230396
 1.12254722 1.1227918  1.12303767 1.12328485 1.12353333 1.1237831
 1.12403416 1.12428651 1.12454015 1.12479506 1.12505126 1.12530873
 1.12556748 1.12582749 1.12608877 1.12635132 1.12661512 1.12688018
 1.1271465  1.12741406 1.12768287 1.12795293 1.12822423 1.12849677
 1.12877054 1.12904554 1.12932177 1.12959923 1.12987791 1.13015781
 1.13043892 1.13072125 1.13100479 1.13128953 1.13157548 1.13186262
 1.13215097 1.13244051 1.13273124 1.13302316 1.13331626 1.13361054
 1.133906   1.13420264 1.13450045 1.13479943 1.13509957 1.13540088
 1.13570335 1.13600697 1.13631175 1.13661768 1.13692475 1.13723297
 1.13754233 1.13785282 1.13816446 1.13847722 1.13879111 1.13910613
 1.13942227 1.13973952 1.1400579  1.14037739 1.14069798 1.14101969
 1.14134249 1.1416664  1.1419914  1.1423175  1.14264469 1.14297297
 1.14330234 1.14363278 1.14396431 1.14429691 1.14463058 1.14496532
 1.14530113 1.145638   1.14597593 1.14631492 1.14665497 1.14699606
 1.14733821 1.14768139 1.14802562 1.14837089 1.1487172  1.14906453
 1.1494129  1.1497623  1.15011271 1.15046415 1.15081661 1.15117008
 1.15152456 1.15188005 1.15223654 1.15259404 1.15295254 1.15331203
 1.15367251 1.15403399 1.15439645 1.1547599  1.15512433 1.15548974
 1.15585612 1.15622347 1.15659179 1.15696108 1.15733133 1.15770255
 1.15807472 1.15844784 1.15882191 1.15919694 1.1595729  1.15994981
 1.16032766 1.16070645 1.16108617 1.16146681 1.16184839 1.16223089
 1.16261431 1.16299865 1.16338391 1.16377007 1.16415715 1.16454513
 1.16493402 1.16532381 1.1657145  1.16610608 1.16649855 1.16689191
 1.16728616 1.16768129 1.1680773  1.16847419 1.16887195 1.16927059
 1.16967009 1.17007046 1.17047169 1.17087378 1.17127673 1.17168053
 1.17208518 1.17249068 1.17289703 1.17330422 1.17371225 1.17412112
 1.17453082 1.17494135 1.17535271 1.17576489 1.1761779  1.17659173
 1.17700637 1.17742183 1.1778381  1.17825518 1.17867306 1.17909175
 1.17951123 1.17993151 1.18035259 1.18077446 1.18119712 1.18162056
 1.18204479 1.18246979 1.18289558 1.18332214 1.18374947 1.18417757
 1.18460643 1.18503606 1.18546645 1.1858976  1.18632951 1.18676216
 1.18719557 1.18762972 1.18806462 1.18850026 1.18893664 1.18937375
 1.1898116  1.19025018 1.19068948 1.19112952 1.19157027 1.19201174
 1.19245393 1.19289684 1.19334046 1.19378478 1.19422982 1.19467555
 1.19512199 1.19556913 1.19601696 1.19646548 1.1969147  1.1973646
 1.19781518 1.19826645 1.1987184  1.19917103 1.19962433 1.2000783
 1.20053295 1.20098826 1.20144423 1.20190086 1.20235816 1.2028161
 1.20327471 1.20373396 1.20419386 1.20465441 1.2051156  1.20557743
 1.2060399  1.20650301 1.20696675 1.20743112 1.20789611 1.20836174
 1.20882798 1.20929485 1.20976233 1.21023043 1.21069914 1.21116846
 1.21163839 1.21210892 1.21258006 1.21305179 1.21352412 1.21399705
 1.21447057 1.21494469 1.21541939 1.21589467 1.21637054 1.21684698
 1.21732401 1.21780161 1.21827978 1.21875853 1.21923784 1.21971771
 1.22019815 1.22067915 1.22116071 1.22164283 1.2221255  1.22260872
 1.22309248 1.2235768  1.22406166 1.22454706 1.22503299 1.22551947
 1.22600648 1.22649402 1.22698209 1.22747069 1.22795981 1.22844946
 1.22893963 1.22943031 1.22992151 1.23041322 1.23090544 1.23139818
 1.23189141 1.23238516 1.2328794  1.23337414 1.23386938 1.23436512
 1.23486134 1.23535806 1.23585526 1.23635295 1.23685113 1.23734978
 1.23784892 1.23834853 1.23884861 1.23934917 1.23985019 1.24035169
 1.24085365 1.24135607 1.24185895 1.24236229 1.24286609 1.24337035
 1.24387505 1.24438021 1.24488581 1.24539186 1.24589835 1.24640528
 1.24691265 1.24742046 1.2479287  1.24843738 1.24894649 1.24945602
 1.24996598 1.25047637 1.25098718 1.2514984  1.25201005 1.25252211
 1.25303458 1.25354747 1.25406076 1.25457446 1.25508857 1.25560308
 1.25611799 1.2566333  1.257149   1.2576651  1.2581816  1.25869848
 1.25921575 1.25973341 1.26025146 1.26076988 1.26128869 1.26180787
 1.26232744 1.26284737 1.26336768 1.26388836 1.26440941 1.26493082
 1.2654526  1.26597474 1.26649724 1.2670201  1.26754332 1.26806689
 1.26859082 1.26911509 1.26963971 1.27016468 1.27069    1.27121566
 1.27174166 1.272268   1.27279467 1.27332168 1.27384903 1.27437671
 1.27490471 1.27543305 1.27596171 1.27649069 1.27702    1.27754962
 1.27807957 1.27860983 1.27914041 1.2796713  1.2802025  1.28073401
 1.28126582 1.28179795 1.28233037 1.2828631  1.28339613 1.28392946
 1.28446308 1.284997   1.28553121 1.28606571 1.28660051 1.28713559
 1.28767095 1.2882066  1.28874253 1.28927875 1.28981524 1.29035201
 1.29088905 1.29142637 1.29196396 1.29250182 1.29303995 1.29357835
 1.29411701 1.29465593 1.29519512 1.29573457 1.29627427 1.29681423
 1.29735445 1.29789492 1.29843564 1.29897661 1.29951783 1.3000593
 1.30060101 1.30114296 1.30168516 1.3022276  1.30277028 1.30331319
 1.30385634 1.30439972 1.30494333 1.30548718 1.30603125 1.30657555
 1.30712008 1.30766483 1.30820981 1.308755   1.30930042 1.30984605
 1.3103919  1.31093796 1.31148424 1.31203073 1.31257743 1.31312434
 1.31367145 1.31421877 1.3147663  1.31531403 1.31586196 1.31641009
 1.31695841 1.31750694 1.31805566 1.31860457 1.31915368 1.31970298
 1.32025246 1.32080214 1.321352   1.32190204 1.32245227 1.32300269
 1.32355328 1.32410405 1.324655   1.32520613 1.32575743 1.32630891
 1.32686055 1.32741237 1.32796436 1.32851652 1.32906884 1.32962133
 1.33017398 1.3307268  1.33127978 1.33183292 1.33238621 1.33293967
 1.33349328 1.33404704 1.33460096 1.33515503 1.33570925 1.33626362
 1.33681814 1.3373728  1.33792761 1.33848257 1.33903766 1.3395929
 1.34014828 1.3407038  1.34125946 1.34181525 1.34237118 1.34292724
 1.34348344 1.34403976 1.34459622 1.34515281 1.34570952 1.34626636
 1.34682333 1.34738042 1.34793764 1.34849497 1.34905243 1.34961
 1.3501677  1.35072551 1.35128344 1.35184148 1.35239964 1.3529579
 1.35351628 1.35407477 1.35463337 1.35519208 1.35575089 1.35630981
 1.35686883 1.35742796 1.35798719 1.35854652 1.35910595 1.35966548
 1.3602251  1.36078483 1.36134465 1.36190456 1.36246457 1.36302466
 1.36358486 1.36414514 1.36470551 1.36526596 1.36582651 1.36638714
 1.36694786 1.36750866 1.36806954 1.36863051 1.36919155 1.36975268
 1.37031388 1.37087516 1.37143652 1.37199796 1.37255947 1.37312105
 1.37368271 1.37424444 1.37480624 1.37536811 1.37593005 1.37649205
 1.37705413 1.37761627 1.37817847 1.37874074 1.37930308 1.37986547
 1.38042793 1.38099045 1.38155302 1.38211566 1.38267835 1.3832411
 1.38380391 1.38436677 1.38492969 1.38549266 1.38605568 1.38661875
 1.38718188 1.38774505 1.38830827 1.38887155 1.38943486 1.38999823
 1.39056164 1.3911251  1.39168859 1.39225214 1.39281572 1.39337935
 1.39394302 1.39450672 1.39507047 1.39563425]
t = [1.09452405e+09 1.09452411e+09 1.09452416e+09 1.09452422e+09
 1.09452428e+09 1.09452433e+09 1.09452439e+09 1.09452444e+09
 1.09452450e+09 1.09452456e+09 1.09452461e+09 1.09452467e+09
 1.09452473e+09 1.09452478e+09 1.09452484e+09 1.09452489e+09
 1.09452495e+09 1.09452501e+09 1.09452506e+09 1.09452512e+09
 1.09452518e+09 1.09452523e+09 1.09452529e+09 1.09452535e+09
 1.09452540e+09 1.09452546e+09 1.09452551e+09 1.09452557e+09
 1.09452563e+09 1.09452568e+09 1.09452574e+09 1.09452580e+09
 1.09452585e+09 1.09452591e+09 1.09452596e+09 1.09452602e+09
 1.09452608e+09 1.09452613e+09 1.09452619e+09 1.09452625e+09
 1.09452630e+09 1.09452636e+09 1.09452642e+09 1.09452647e+09
 1.09452653e+09 1.09452658e+09 1.09452664e+09 1.09452670e+09
 1.09452675e+09 1.09452681e+09 1.09452687e+09 1.09452692e+09
 1.09452698e+09 1.09452703e+09 1.09452709e+09 1.09452715e+09
 1.09452720e+09 1.09452726e+09 1.09452732e+09 1.09452737e+09
 1.09452743e+09 1.09452748e+09 1.09452754e+09 1.09452760e+09
 1.09452765e+09 1.09452771e+09 1.09452777e+09 1.09452782e+09
 1.09452788e+09 1.09452794e+09 1.09452799e+09 1.09452805e+09
 1.09452810e+09 1.09452816e+09 1.09452822e+09 1.09452827e+09
 1.09452833e+09 1.09452839e+09 1.09452844e+09 1.09452850e+09
 1.09452855e+09 1.09452861e+09 1.09452867e+09 1.09452872e+09
 1.09452878e+09 1.09452884e+09 1.09452889e+09 1.09452895e+09
 1.09452901e+09 1.09452906e+09 1.09452912e+09 1.09452917e+09
 1.09452923e+09 1.09452929e+09 1.09452934e+09 1.09452940e+09
 1.09452946e+09 1.09452951e+09 1.09452957e+09 1.09452962e+09
 1.09452968e+09 1.09452974e+09 1.09452979e+09 1.09452985e+09
 1.09452991e+09 1.09452996e+09 1.09453002e+09 1.09453007e+09
 1.09453013e+09 1.09453019e+09 1.09453024e+09 1.09453030e+09
 1.09453036e+09 1.09453041e+09 1.09453047e+09 1.09453053e+09
 1.09453058e+09 1.09453064e+09 1.09453069e+09 1.09453075e+09
 1.09453081e+09 1.09453086e+09 1.09453092e+09 1.09453098e+09
 1.09453103e+09 1.09453109e+09 1.09453114e+09 1.09453120e+09
 1.09453126e+09 1.09453131e+09 1.09453137e+09 1.09453143e+09
 1.09453148e+09 1.09453154e+09 1.09453160e+09 1.09453165e+09
 1.09453171e+09 1.09453176e+09 1.09453182e+09 1.09453188e+09
 1.09453193e+09 1.09453199e+09 1.09453205e+09 1.09453210e+09
 1.09453216e+09 1.09453221e+09 1.09453227e+09 1.09453233e+09
 1.09453238e+09 1.09453244e+09 1.09453250e+09 1.09453255e+09
 1.09453261e+09 1.09453267e+09 1.09453272e+09 1.09453278e+09
 1.09453283e+09 1.09453289e+09 1.09453295e+09 1.09453300e+09
 1.09453306e+09 1.09453312e+09 1.09453317e+09 1.09453323e+09
 1.09453328e+09 1.09453334e+09 1.09453340e+09 1.09453345e+09
 1.09453351e+09 1.09453357e+09 1.09453362e+09 1.09453368e+09
 1.09453373e+09 1.09453379e+09 1.09453385e+09 1.09453390e+09
 1.09453396e+09 1.09453402e+09 1.09453407e+09 1.09453413e+09
 1.09453419e+09 1.09453424e+09 1.09453430e+09 1.09453435e+09
 1.09453441e+09 1.09453447e+09 1.09453452e+09 1.09453458e+09
 1.09453464e+09 1.09453469e+09 1.09453475e+09 1.09453480e+09
 1.09453486e+09 1.09453492e+09 1.09453497e+09 1.09453503e+09
 1.09453509e+09 1.09453514e+09 1.09453520e+09 1.09453526e+09
 1.09453531e+09 1.09453537e+09 1.09453542e+09 1.09453548e+09
 1.09453554e+09 1.09453559e+09 1.09453565e+09 1.09453571e+09
 1.09453576e+09 1.09453582e+09 1.09453587e+09 1.09453593e+09
 1.09453599e+09 1.09453604e+09 1.09453610e+09 1.09453616e+09
 1.09453621e+09 1.09453627e+09 1.09453632e+09 1.09453638e+09
 1.09453644e+09 1.09453649e+09 1.09453655e+09 1.09453661e+09
 1.09453666e+09 1.09453672e+09 1.09453678e+09 1.09453683e+09
 1.09453689e+09 1.09453694e+09 1.09453700e+09 1.09453706e+09
 1.09453711e+09 1.09453717e+09 1.09453723e+09 1.09453728e+09
 1.09453734e+09 1.09453739e+09 1.09453745e+09 1.09453751e+09
 1.09453756e+09 1.09453762e+09 1.09453768e+09 1.09453773e+09
 1.09453779e+09 1.09453785e+09 1.09453790e+09 1.09453796e+09
 1.09453801e+09 1.09453807e+09 1.09453813e+09 1.09453818e+09
 1.09453824e+09 1.09453830e+09 1.09453835e+09 1.09453841e+09
 1.09453846e+09 1.09453852e+09 1.09453858e+09 1.09453863e+09
 1.09453869e+09 1.09453875e+09 1.09453880e+09 1.09453886e+09
 1.09453892e+09 1.09453897e+09 1.09453903e+09 1.09453908e+09
 1.09453914e+09 1.09453920e+09 1.09453925e+09 1.09453931e+09
 1.09453937e+09 1.09453942e+09 1.09453948e+09 1.09453953e+09
 1.09453959e+09 1.09453965e+09 1.09453970e+09 1.09453976e+09
 1.09453982e+09 1.09453987e+09 1.09453993e+09 1.09453998e+09
 1.09454004e+09 1.09454010e+09 1.09454015e+09 1.09454021e+09
 1.09454027e+09 1.09454032e+09 1.09454038e+09 1.09454044e+09
 1.09454049e+09 1.09454055e+09 1.09454060e+09 1.09454066e+09
 1.09454072e+09 1.09454077e+09 1.09454083e+09 1.09454089e+09
 1.09454094e+09 1.09454100e+09 1.09454105e+09 1.09454111e+09
 1.09454117e+09 1.09454122e+09 1.09454128e+09 1.09454134e+09
 1.09454139e+09 1.09454145e+09 1.09454151e+09 1.09454156e+09
 1.09454162e+09 1.09454167e+09 1.09454173e+09 1.09454179e+09
 1.09454184e+09 1.09454190e+09 1.09454196e+09 1.09454201e+09
 1.09454207e+09 1.09454212e+09 1.09454218e+09 1.09454224e+09
 1.09454229e+09 1.09454235e+09 1.09454241e+09 1.09454246e+09
 1.09454252e+09 1.09454257e+09 1.09454263e+09 1.09454269e+09
 1.09454274e+09 1.09454280e+09 1.09454286e+09 1.09454291e+09
 1.09454297e+09 1.09454303e+09 1.09454308e+09 1.09454314e+09
 1.09454319e+09 1.09454325e+09 1.09454331e+09 1.09454336e+09
 1.09454342e+09 1.09454348e+09 1.09454353e+09 1.09454359e+09
 1.09454364e+09 1.09454370e+09 1.09454376e+09 1.09454381e+09
 1.09454387e+09 1.09454393e+09 1.09454398e+09 1.09454404e+09
 1.09454410e+09 1.09454415e+09 1.09454421e+09 1.09454426e+09
 1.09454432e+09 1.09454438e+09 1.09454443e+09 1.09454449e+09
 1.09454455e+09 1.09454460e+09 1.09454466e+09 1.09454471e+09
 1.09454477e+09 1.09454483e+09 1.09454488e+09 1.09454494e+09
 1.09454500e+09 1.09454505e+09 1.09454511e+09 1.09454517e+09
 1.09454522e+09 1.09454528e+09 1.09454533e+09 1.09454539e+09
 1.09454545e+09 1.09454550e+09 1.09454556e+09 1.09454562e+09
 1.09454567e+09 1.09454573e+09 1.09454578e+09 1.09454584e+09
 1.09454590e+09 1.09454595e+09 1.09454601e+09 1.09454607e+09
 1.09454612e+09 1.09454618e+09 1.09454623e+09 1.09454629e+09
 1.09454635e+09 1.09454640e+09 1.09454646e+09 1.09454652e+09
 1.09454657e+09 1.09454663e+09 1.09454669e+09 1.09454674e+09
 1.09454680e+09 1.09454685e+09 1.09454691e+09 1.09454697e+09
 1.09454702e+09 1.09454708e+09 1.09454714e+09 1.09454719e+09
 1.09454725e+09 1.09454730e+09 1.09454736e+09 1.09454742e+09
 1.09454747e+09 1.09454753e+09 1.09454759e+09 1.09454764e+09
 1.09454770e+09 1.09454776e+09 1.09454781e+09 1.09454787e+09
 1.09454792e+09 1.09454798e+09 1.09454804e+09 1.09454809e+09
 1.09454815e+09 1.09454821e+09 1.09454826e+09 1.09454832e+09
 1.09454837e+09 1.09454843e+09 1.09454849e+09 1.09454854e+09
 1.09454860e+09 1.09454866e+09 1.09454871e+09 1.09454877e+09
 1.09454882e+09 1.09454888e+09 1.09454894e+09 1.09454899e+09
 1.09454905e+09 1.09454911e+09 1.09454916e+09 1.09454922e+09
 1.09454928e+09 1.09454933e+09 1.09454939e+09 1.09454944e+09
 1.09454950e+09 1.09454956e+09 1.09454961e+09 1.09454967e+09
 1.09454973e+09 1.09454978e+09 1.09454984e+09 1.09454989e+09
 1.09454995e+09 1.09455001e+09 1.09455006e+09 1.09455012e+09
 1.09455018e+09 1.09455023e+09 1.09455029e+09 1.09455035e+09
 1.09455040e+09 1.09455046e+09 1.09455051e+09 1.09455057e+09
 1.09455063e+09 1.09455068e+09 1.09455074e+09 1.09455080e+09
 1.09455085e+09 1.09455091e+09 1.09455096e+09 1.09455102e+09
 1.09455108e+09 1.09455113e+09 1.09455119e+09 1.09455125e+09
 1.09455130e+09 1.09455136e+09 1.09455142e+09 1.09455147e+09
 1.09455153e+09 1.09455158e+09 1.09455164e+09 1.09455170e+09
 1.09455175e+09 1.09455181e+09 1.09455187e+09 1.09455192e+09
 1.09455198e+09 1.09455203e+09 1.09455209e+09 1.09455215e+09
 1.09455220e+09 1.09455226e+09 1.09455232e+09 1.09455237e+09
 1.09455243e+09 1.09455248e+09 1.09455254e+09 1.09455260e+09
 1.09455265e+09 1.09455271e+09 1.09455277e+09 1.09455282e+09
 1.09455288e+09 1.09455294e+09 1.09455299e+09 1.09455305e+09
 1.09455310e+09 1.09455316e+09 1.09455322e+09 1.09455327e+09
 1.09455333e+09 1.09455339e+09 1.09455344e+09 1.09455350e+09
 1.09455355e+09 1.09455361e+09 1.09455367e+09 1.09455372e+09
 1.09455378e+09 1.09455384e+09 1.09455389e+09 1.09455395e+09
 1.09455401e+09 1.09455406e+09 1.09455412e+09 1.09455417e+09
 1.09455423e+09 1.09455429e+09 1.09455434e+09 1.09455440e+09
 1.09455446e+09 1.09455451e+09 1.09455457e+09 1.09455462e+09
 1.09455468e+09 1.09455474e+09 1.09455479e+09 1.09455485e+09
 1.09455491e+09 1.09455496e+09 1.09455502e+09 1.09455507e+09
 1.09455513e+09 1.09455519e+09 1.09455524e+09 1.09455530e+09
 1.09455536e+09 1.09455541e+09 1.09455547e+09 1.09455553e+09
