name =JUICE_ROI_GAN_6_1_04
flyby = ['2034 SEP 28 18:48:51', '2034 SEP 29 18:48:51']
Observation TW = <SpiceCell dtype = 1, length = 0, size = 3000, card = 10, is_set = 1, adjust = 0, init = 1, base = 94540022989072, data = 94540022989120>
Res(t) = [1.91780995 1.91720047 1.91659305 1.91598767 1.91538435 1.91478307
 1.91418383 1.91358662 1.91299146 1.91239833 1.91180723 1.91121815
 1.9106311  1.91004608 1.90946306 1.90888207 1.90830308 1.90772611
 1.90715114 1.90657817 1.9060072  1.90543823 1.90487126 1.90430627
 1.90374327 1.90318226 1.90262323 1.90206617 1.9015111  1.900958
 1.90040686 1.89985769 1.89931049 1.89876525 1.89822197 1.89768064
 1.89714127 1.89660384 1.89606836 1.89553482 1.89500322 1.89447357
 1.89394584 1.89342005 1.89289618 1.89237425 1.89185423 1.89133613
 1.89081995 1.89030569 1.88979334 1.88928289 1.88877435 1.88826771
 1.88776297 1.88726013 1.88675918 1.88626013 1.88576295 1.88526767
 1.88477427 1.88428275 1.8837931  1.88330532 1.88281942 1.88233539
 1.88185321 1.88137291 1.88089446 1.88041786 1.87994312 1.87947023
 1.87899919 1.87853    1.87806264 1.87759713 1.87713345 1.87667161
 1.87621159 1.87575341 1.87529705 1.87484251 1.87438979 1.87393888
 1.8734898  1.87304252 1.87259705 1.87215338 1.87171152 1.87127146
 1.8708332  1.87039673 1.86996205 1.86952916 1.86909806 1.86866874
 1.8682412  1.86781544 1.86739145 1.86696924 1.86654879 1.86613011
 1.8657132  1.86529805 1.86488465 1.86447302 1.86406313 1.863655
 1.86324861 1.86284397 1.86244107 1.86203991 1.86164049 1.8612428
 1.86084684 1.86045261 1.86006011 1.85966933 1.85928027 1.85889293
 1.85850731 1.8581234  1.8577412  1.8573607  1.85698191 1.85660483
 1.85622944 1.85585575 1.85548375 1.85511345 1.85474483 1.8543779
 1.85401266 1.85364909 1.85328721 1.852927   1.85256846 1.85221159
 1.85185639 1.85150286 1.85115099 1.85080078 1.85045223 1.85010533
 1.84976009 1.84941649 1.84907455 1.84873424 1.84839559 1.84805857
 1.84772318 1.84738944 1.84705732 1.84672683 1.84639797 1.84607074
 1.84574513 1.84542113 1.84509876 1.84477799 1.84445884 1.8441413
 1.84382537 1.84351104 1.84319831 1.84288719 1.84257766 1.84226972
 1.84196337 1.84165862 1.84135545 1.84105387 1.84075387 1.84045544
 1.8401586  1.83986333 1.83956963 1.83927751 1.83898695 1.83869795
 1.83841052 1.83812465 1.83784033 1.83755757 1.83727636 1.83699671
 1.8367186  1.83644204 1.83616702 1.83589354 1.8356216  1.8353512
 1.83508233 1.83481499 1.83454918 1.8342849  1.83402214 1.8337609
 1.83350118 1.83324298 1.8329863  1.83273112 1.83247746 1.83222531
 1.83197466 1.83172551 1.83147786 1.83123172 1.83098707 1.83074391
 1.83050225 1.83026207 1.83002338 1.82978618 1.82955046 1.82931621
 1.82908345 1.82885216 1.82862235 1.828394   1.82816713 1.82794172
 1.82771777 1.82749529 1.82727427 1.8270547  1.82683659 1.82661993
 1.82640473 1.82619097 1.82597866 1.82576779 1.82555836 1.82535038
 1.82514383 1.82493871 1.82473503 1.82453278 1.82433196 1.82413257
 1.8239346  1.82373805 1.82354292 1.82334921 1.82315692 1.82296603
 1.82277656 1.8225885  1.82240185 1.8222166  1.82203275 1.82185031
 1.82166926 1.82148961 1.82131135 1.82113448 1.82095901 1.82078492
 1.82061222 1.8204409  1.82027096 1.8201024  1.81993522 1.81976942
 1.81960498 1.81944192 1.81928023 1.8191199  1.81896094 1.81880334
 1.81864711 1.81849223 1.8183387  1.81818653 1.81803572 1.81788625
 1.81773814 1.81759137 1.81744594 1.81730185 1.81715911 1.8170177
 1.81687763 1.8167389  1.81660149 1.81646542 1.81633067 1.81619726
 1.81606516 1.81593439 1.81580493 1.8156768  1.81554998 1.81542448
 1.81530029 1.8151774  1.81505583 1.81493556 1.8148166  1.81469894
 1.81458258 1.81446752 1.81435376 1.81424129 1.81413011 1.81402023
 1.81391163 1.81380432 1.8136983  1.81359356 1.8134901  1.81338792
 1.81328701 1.81318739 1.81308903 1.81299195 1.81289614 1.8128016
 1.81270832 1.81261631 1.81252555 1.81243607 1.81234783 1.81226086
 1.81217514 1.81209067 1.81200746 1.81192549 1.81184478 1.81176531
 1.81168708 1.81161009 1.81153435 1.81145984 1.81138657 1.81131454
 1.81124373 1.81117416 1.81110582 1.81103871 1.81097282 1.81090816
 1.81084472 1.8107825  1.8107215  1.81066171 1.81060314 1.81054579
 1.81048965 1.81043471 1.81038099 1.81032847 1.81027715 1.81022704
 1.81017813 1.81013042 1.81008391 1.81003859 1.80999447 1.80995154
 1.8099098  1.80986925 1.80982989 1.80979171 1.80975472 1.80971891
 1.80968428 1.80965083 1.80961856 1.80958746 1.80955754 1.80952879
 1.80950121 1.8094748  1.80944955 1.80942548 1.80940256 1.80938081
 1.80936022 1.80934079 1.80932251 1.80930539 1.80928943 1.80927461
 1.80926095 1.80924844 1.80923707 1.80922685 1.80921778 1.80920985
 1.80920306 1.80919741 1.80919289 1.80918952 1.80918727 1.80918616
 1.80918619 1.80918734 1.80918962 1.80919303 1.80919756 1.80920322
 1.80921    1.8092179  1.80922691 1.80923705 1.8092483  1.80926067
 1.80927415 1.80928874 1.80930444 1.80932125 1.80933916 1.80935818
 1.80937831 1.80939953 1.80942186 1.80944529 1.80946981 1.80949543
 1.80952215 1.80954995 1.80957885 1.80960884 1.80963992 1.80967208
 1.80970533 1.80973967 1.80977509 1.80981159 1.80984917 1.80988782
 1.80992756 1.80996837 1.81001025 1.81005321 1.81009723 1.81014233
 1.81018849 1.81023573 1.81028402 1.81033338 1.81038381 1.81043529
 1.81048784 1.81054144 1.8105961  1.81065181 1.81070858 1.8107664
 1.81082527 1.8108852  1.81094617 1.81100819 1.81107125 1.81113536
 1.81120051 1.8112667  1.81133393 1.8114022  1.81147151 1.81154186
 1.81161324 1.81168565 1.81175909 1.81183357 1.81190907 1.8119856
 1.81206316 1.81214175 1.81222136 1.81230199 1.81238364 1.81246631
 1.81255    1.81263471 1.81272044 1.81280718 1.81289493 1.81298369
 1.81307347 1.81316425 1.81325605 1.81334885 1.81344265 1.81353747
 1.81363328 1.81373009 1.81382791 1.81392673 1.81402654 1.81412735
 1.81422915 1.81433195 1.81443575 1.81454053 1.81464631 1.81475307
 1.81486082 1.81496956 1.81507929 1.81519    1.81530169 1.81541436
 1.81552802 1.81564265 1.81575826 1.81587485 1.81599242 1.81611096
 1.81623047 1.81635096 1.81647241 1.81659484 1.81671823 1.81684259
 1.81696792 1.81709421 1.81722147 1.81734969 1.81747887 1.81760901
 1.81774012 1.81787217 1.81800519 1.81813916 1.81827409 1.81840997
 1.8185468  1.81868458 1.81882331 1.81896299 1.81910362 1.8192452
 1.81938772 1.81953119 1.8196756  1.81982095 1.81996724 1.82011447
 1.82026264 1.82041175 1.82056179 1.82071277 1.82086469 1.82101753
 1.82117132 1.82132603 1.82148167 1.82163824 1.82179573 1.82195416
 1.82211351 1.82227378 1.82243498 1.8225971  1.82276014 1.8229241
 1.82308899 1.82325479 1.8234215  1.82358913 1.82375768 1.82392714
 1.82409752 1.82426881 1.82444101 1.82461411 1.82478813 1.82496305
 1.82513889 1.82531562 1.82549326 1.82567181 1.82585126 1.82603161
 1.82621286 1.82639501 1.82657806 1.82676201 1.82694685 1.82713259
 1.82731923 1.82750676 1.82769518 1.82788449 1.82807469 1.82826579
 1.82845777 1.82865064 1.8288444  1.82903904 1.82923457 1.82943099
 1.82962828 1.82982646 1.83002552 1.83022546 1.83042628 1.83062798
 1.83083056 1.83103401 1.83123834 1.83144354 1.83164962 1.83185657
 1.83206439 1.83227308 1.83248265 1.83269308 1.83290438 1.83311655
 1.83332958 1.83354348 1.83375825 1.83397388 1.83419037 1.83440772
 1.83462594 1.83484501 1.83506495 1.83528574 1.83550739 1.8357299
 1.83595326 1.83617748 1.83640256 1.83662848 1.83685526 1.83708289
 1.83731138 1.83754071 1.83777089 1.83800192 1.8382338  1.83846652
 1.83870009 1.8389345  1.83916976 1.83940586 1.8396428  1.83988059
 1.84011922 1.84035868 1.84059899 1.84084013 1.84108211 1.84132493
 1.84156859 1.84181308 1.8420584  1.84230456 1.84255155 1.84279937
 1.84304802 1.84329751 1.84354782 1.84379896 1.84405093 1.84430373
 1.84455735 1.8448118  1.84506708 1.84532318 1.8455801  1.84583785
 1.84609642 1.8463558  1.84661601 1.84687704 1.84713889 1.84740156
 1.84766504 1.84792934 1.84819446 1.84846039 1.84872714 1.8489947
 1.84926307 1.84953226 1.84980226 1.85007307 1.85034469 1.85061712
 1.85089035 1.8511644  1.85143925 1.85171491 1.85199138 1.85226865
 1.85254673 1.85282561 1.85310529 1.85338578 1.85366707 1.85394916
 1.85423205 1.85451574 1.85480023 1.85508552 1.8553716  1.85565849
 1.85594617 1.85623464 1.85652391 1.85681398 1.85710484 1.85739649
 1.85768894 1.85798218 1.85827621 1.85857103 1.85886664 1.85916304
 1.85946023 1.85975821 1.86005697 1.86035652 1.86065686 1.86095799
 1.8612599  1.86156259 1.86186607 1.86217033 1.86247537 1.8627812
 1.86308781 1.8633952  1.86370337 1.86401232 1.86432204 1.86463255
 1.86494384 1.8652559  1.86556874 1.86588235 1.86619675 1.86651191
 1.86682785 1.86714457 1.86746206 1.86778032 1.86809935 1.86841916
 1.86873973 1.86906108 1.8693832  1.86970609 1.87002974 1.87035417
 1.87067936 1.87100532 1.87133205 1.87165954 1.8719878  1.87231683
 1.87264661 1.87297717 1.87330849 1.87364057 1.87397341 1.87430702
 1.87464138 1.87497651 1.8753124  1.87564905 1.87598646 1.87632463
 1.87666355 1.87700324 1.87734368 1.87768488 1.87802684 1.87836955
 1.87871302 1.87905724 1.87940222 1.87974796 1.88009444 1.88044168
 1.88078968 1.88113842 1.88148792 1.88183817 1.88218917 1.88254092
 1.88289342 1.88324668 1.88360068 1.88395543 1.88431093 1.88466717
 1.88502416 1.88538191 1.88574039 1.88609963 1.88645961 1.88682033
 1.8871818  1.88754402 1.88790698 1.88827068 1.88863512 1.88900031
 1.88936625 1.88973292 1.89010033 1.89046849 1.89083739 1.89120703
 1.8915774  1.89194852 1.89232038 1.89269298 1.89306631 1.89344039
 1.8938152  1.89419075 1.89456703 1.89494405 1.89532181 1.89570031
 1.89607954 1.8964595  1.89684021 1.89722164 1.89760381 1.89798671
 1.89837035 1.89875472 1.89913982 1.89952566 1.89991222 1.90029952
 1.90068756 1.90107632 1.90146581 1.90185603 1.90224699 1.90263867
 1.90303108 1.90342422 1.90381809 1.90421269 1.90460802 1.90500407
 1.90540086 1.90579837 1.9061966  1.90659557 1.90699526 1.90739567
 1.90779682 1.90819869 1.90860128 1.9090046  1.90940864 1.90981341
 1.9102189  1.91062511 1.91103205 1.91143971 1.9118481  1.91225721
 1.91266704 1.91307759 1.91348886 1.91390086 1.91431358 1.91472702
 1.91514118 1.91555606 1.91597166 1.91638798 1.91680502 1.91722278
 1.91764126 1.91806046 1.91848038 1.91890102 1.91932238 1.91974445
 1.92016724 1.92059076 1.92101498 1.92143993 1.92186559 1.92229197
 1.92271907 1.92314689 1.92357542 1.92400466 1.92443462 1.9248653
 1.9252967  1.92572881 1.92616163 1.92659517 1.92702943 1.9274644
 1.92790008 1.92833648 1.9287736  1.92921142 1.92964996 1.93008922
 1.93052919 1.93096987 1.93141126 1.93185337 1.93229619 1.93273973
 1.93318397 1.93362893 1.9340746  1.93452098 1.93496808 1.93541589
 1.93586441 1.93631364 1.93676358 1.93721423 1.93766559 1.93811767
 1.93857046 1.93902395 1.93947816 1.93993308 1.94038871 1.94084505
 1.9413021  1.94175986 1.94221833 1.94267751 1.9431374  1.943598
 1.94405931 1.94452132 1.94498405 1.94544749 1.94591164 1.94637649
 1.94684206 1.94730833 1.94777531 1.948243   1.94871141 1.94918051
 1.94965033 1.95012086 1.9505921  1.95106404 1.95153669 1.95201005
 1.95248412 1.9529589  1.95343438 1.95391058 1.95438748 1.95486509
 1.95534341 1.95582243 1.95630217 1.95678261 1.95726376 1.95774561
 1.95822818 1.95871145 1.95919544 1.95968012 1.96016552 1.96065163
 1.96113844 1.96162596 1.96211419 1.96260312 1.96309276 1.96358312
 1.96407418 1.96456594 1.96505842 1.9655516  1.96604549 1.96654009
 1.96703539 1.9675314  1.96802813 1.96852555 1.96902369 1.96952254
 1.97002209 1.97052235 1.97102332 1.971525   1.97202738 1.97253047
 1.97303428 1.97353879 1.974044   1.97454993]
t = [1.09640355e+09 1.09640359e+09 1.09640362e+09 1.09640366e+09
 1.09640370e+09 1.09640374e+09 1.09640377e+09 1.09640381e+09
 1.09640385e+09 1.09640388e+09 1.09640392e+09 1.09640396e+09
 1.09640400e+09 1.09640403e+09 1.09640407e+09 1.09640411e+09
 1.09640414e+09 1.09640418e+09 1.09640422e+09 1.09640425e+09
 1.09640429e+09 1.09640433e+09 1.09640437e+09 1.09640440e+09
 1.09640444e+09 1.09640448e+09 1.09640451e+09 1.09640455e+09
 1.09640459e+09 1.09640463e+09 1.09640466e+09 1.09640470e+09
 1.09640474e+09 1.09640477e+09 1.09640481e+09 1.09640485e+09
 1.09640489e+09 1.09640492e+09 1.09640496e+09 1.09640500e+09
 1.09640503e+09 1.09640507e+09 1.09640511e+09 1.09640514e+09
 1.09640518e+09 1.09640522e+09 1.09640526e+09 1.09640529e+09
 1.09640533e+09 1.09640537e+09 1.09640540e+09 1.09640544e+09
 1.09640548e+09 1.09640552e+09 1.09640555e+09 1.09640559e+09
 1.09640563e+09 1.09640566e+09 1.09640570e+09 1.09640574e+09
 1.09640578e+09 1.09640581e+09 1.09640585e+09 1.09640589e+09
 1.09640592e+09 1.09640596e+09 1.09640600e+09 1.09640604e+09
 1.09640607e+09 1.09640611e+09 1.09640615e+09 1.09640618e+09
 1.09640622e+09 1.09640626e+09 1.09640629e+09 1.09640633e+09
 1.09640637e+09 1.09640641e+09 1.09640644e+09 1.09640648e+09
 1.09640652e+09 1.09640655e+09 1.09640659e+09 1.09640663e+09
 1.09640667e+09 1.09640670e+09 1.09640674e+09 1.09640678e+09
 1.09640681e+09 1.09640685e+09 1.09640689e+09 1.09640693e+09
 1.09640696e+09 1.09640700e+09 1.09640704e+09 1.09640707e+09
 1.09640711e+09 1.09640715e+09 1.09640718e+09 1.09640722e+09
 1.09640726e+09 1.09640730e+09 1.09640733e+09 1.09640737e+09
 1.09640741e+09 1.09640744e+09 1.09640748e+09 1.09640752e+09
 1.09640756e+09 1.09640759e+09 1.09640763e+09 1.09640767e+09
 1.09640770e+09 1.09640774e+09 1.09640778e+09 1.09640782e+09
 1.09640785e+09 1.09640789e+09 1.09640793e+09 1.09640796e+09
 1.09640800e+09 1.09640804e+09 1.09640807e+09 1.09640811e+09
 1.09640815e+09 1.09640819e+09 1.09640822e+09 1.09640826e+09
 1.09640830e+09 1.09640833e+09 1.09640837e+09 1.09640841e+09
 1.09640845e+09 1.09640848e+09 1.09640852e+09 1.09640856e+09
 1.09640859e+09 1.09640863e+09 1.09640867e+09 1.09640871e+09
 1.09640874e+09 1.09640878e+09 1.09640882e+09 1.09640885e+09
 1.09640889e+09 1.09640893e+09 1.09640896e+09 1.09640900e+09
 1.09640904e+09 1.09640908e+09 1.09640911e+09 1.09640915e+09
 1.09640919e+09 1.09640922e+09 1.09640926e+09 1.09640930e+09
 1.09640934e+09 1.09640937e+09 1.09640941e+09 1.09640945e+09
 1.09640948e+09 1.09640952e+09 1.09640956e+09 1.09640960e+09
 1.09640963e+09 1.09640967e+09 1.09640971e+09 1.09640974e+09
 1.09640978e+09 1.09640982e+09 1.09640985e+09 1.09640989e+09
 1.09640993e+09 1.09640997e+09 1.09641000e+09 1.09641004e+09
 1.09641008e+09 1.09641011e+09 1.09641015e+09 1.09641019e+09
 1.09641023e+09 1.09641026e+09 1.09641030e+09 1.09641034e+09
 1.09641037e+09 1.09641041e+09 1.09641045e+09 1.09641049e+09
 1.09641052e+09 1.09641056e+09 1.09641060e+09 1.09641063e+09
 1.09641067e+09 1.09641071e+09 1.09641075e+09 1.09641078e+09
 1.09641082e+09 1.09641086e+09 1.09641089e+09 1.09641093e+09
 1.09641097e+09 1.09641100e+09 1.09641104e+09 1.09641108e+09
 1.09641112e+09 1.09641115e+09 1.09641119e+09 1.09641123e+09
 1.09641126e+09 1.09641130e+09 1.09641134e+09 1.09641138e+09
 1.09641141e+09 1.09641145e+09 1.09641149e+09 1.09641152e+09
 1.09641156e+09 1.09641160e+09 1.09641164e+09 1.09641167e+09
 1.09641171e+09 1.09641175e+09 1.09641178e+09 1.09641182e+09
 1.09641186e+09 1.09641189e+09 1.09641193e+09 1.09641197e+09
 1.09641201e+09 1.09641204e+09 1.09641208e+09 1.09641212e+09
 1.09641215e+09 1.09641219e+09 1.09641223e+09 1.09641227e+09
 1.09641230e+09 1.09641234e+09 1.09641238e+09 1.09641241e+09
 1.09641245e+09 1.09641249e+09 1.09641253e+09 1.09641256e+09
 1.09641260e+09 1.09641264e+09 1.09641267e+09 1.09641271e+09
 1.09641275e+09 1.09641278e+09 1.09641282e+09 1.09641286e+09
 1.09641290e+09 1.09641293e+09 1.09641297e+09 1.09641301e+09
 1.09641304e+09 1.09641308e+09 1.09641312e+09 1.09641316e+09
 1.09641319e+09 1.09641323e+09 1.09641327e+09 1.09641330e+09
 1.09641334e+09 1.09641338e+09 1.09641342e+09 1.09641345e+09
 1.09641349e+09 1.09641353e+09 1.09641356e+09 1.09641360e+09
 1.09641364e+09 1.09641367e+09 1.09641371e+09 1.09641375e+09
 1.09641379e+09 1.09641382e+09 1.09641386e+09 1.09641390e+09
 1.09641393e+09 1.09641397e+09 1.09641401e+09 1.09641405e+09
 1.09641408e+09 1.09641412e+09 1.09641416e+09 1.09641419e+09
 1.09641423e+09 1.09641427e+09 1.09641431e+09 1.09641434e+09
 1.09641438e+09 1.09641442e+09 1.09641445e+09 1.09641449e+09
 1.09641453e+09 1.09641457e+09 1.09641460e+09 1.09641464e+09
 1.09641468e+09 1.09641471e+09 1.09641475e+09 1.09641479e+09
 1.09641482e+09 1.09641486e+09 1.09641490e+09 1.09641494e+09
 1.09641497e+09 1.09641501e+09 1.09641505e+09 1.09641508e+09
 1.09641512e+09 1.09641516e+09 1.09641520e+09 1.09641523e+09
 1.09641527e+09 1.09641531e+09 1.09641534e+09 1.09641538e+09
 1.09641542e+09 1.09641546e+09 1.09641549e+09 1.09641553e+09
 1.09641557e+09 1.09641560e+09 1.09641564e+09 1.09641568e+09
 1.09641571e+09 1.09641575e+09 1.09641579e+09 1.09641583e+09
 1.09641586e+09 1.09641590e+09 1.09641594e+09 1.09641597e+09
 1.09641601e+09 1.09641605e+09 1.09641609e+09 1.09641612e+09
 1.09641616e+09 1.09641620e+09 1.09641623e+09 1.09641627e+09
 1.09641631e+09 1.09641635e+09 1.09641638e+09 1.09641642e+09
 1.09641646e+09 1.09641649e+09 1.09641653e+09 1.09641657e+09
 1.09641660e+09 1.09641664e+09 1.09641668e+09 1.09641672e+09
 1.09641675e+09 1.09641679e+09 1.09641683e+09 1.09641686e+09
 1.09641690e+09 1.09641694e+09 1.09641698e+09 1.09641701e+09
 1.09641705e+09 1.09641709e+09 1.09641712e+09 1.09641716e+09
 1.09641720e+09 1.09641724e+09 1.09641727e+09 1.09641731e+09
 1.09641735e+09 1.09641738e+09 1.09641742e+09 1.09641746e+09
 1.09641749e+09 1.09641753e+09 1.09641757e+09 1.09641761e+09
 1.09641764e+09 1.09641768e+09 1.09641772e+09 1.09641775e+09
 1.09641779e+09 1.09641783e+09 1.09641787e+09 1.09641790e+09
 1.09641794e+09 1.09641798e+09 1.09641801e+09 1.09641805e+09
 1.09641809e+09 1.09641813e+09 1.09641816e+09 1.09641820e+09
 1.09641824e+09 1.09641827e+09 1.09641831e+09 1.09641835e+09
 1.09641839e+09 1.09641842e+09 1.09641846e+09 1.09641850e+09
 1.09641853e+09 1.09641857e+09 1.09641861e+09 1.09641864e+09
 1.09641868e+09 1.09641872e+09 1.09641876e+09 1.09641879e+09
 1.09641883e+09 1.09641887e+09 1.09641890e+09 1.09641894e+09
 1.09641898e+09 1.09641902e+09 1.09641905e+09 1.09641909e+09
 1.09641913e+09 1.09641916e+09 1.09641920e+09 1.09641924e+09
 1.09641928e+09 1.09641931e+09 1.09641935e+09 1.09641939e+09
 1.09641942e+09 1.09641946e+09 1.09641950e+09 1.09641953e+09
 1.09641957e+09 1.09641961e+09 1.09641965e+09 1.09641968e+09
 1.09641972e+09 1.09641976e+09 1.09641979e+09 1.09641983e+09
 1.09641987e+09 1.09641991e+09 1.09641994e+09 1.09641998e+09
 1.09642002e+09 1.09642005e+09 1.09642009e+09 1.09642013e+09
 1.09642017e+09 1.09642020e+09 1.09642024e+09 1.09642028e+09
 1.09642031e+09 1.09642035e+09 1.09642039e+09 1.09642042e+09
 1.09642046e+09 1.09642050e+09 1.09642054e+09 1.09642057e+09
 1.09642061e+09 1.09642065e+09 1.09642068e+09 1.09642072e+09
 1.09642076e+09 1.09642080e+09 1.09642083e+09 1.09642087e+09
 1.09642091e+09 1.09642094e+09 1.09642098e+09 1.09642102e+09
 1.09642106e+09 1.09642109e+09 1.09642113e+09 1.09642117e+09
 1.09642120e+09 1.09642124e+09 1.09642128e+09 1.09642131e+09
 1.09642135e+09 1.09642139e+09 1.09642143e+09 1.09642146e+09
 1.09642150e+09 1.09642154e+09 1.09642157e+09 1.09642161e+09
 1.09642165e+09 1.09642169e+09 1.09642172e+09 1.09642176e+09
 1.09642180e+09 1.09642183e+09 1.09642187e+09 1.09642191e+09
 1.09642195e+09 1.09642198e+09 1.09642202e+09 1.09642206e+09
 1.09642209e+09 1.09642213e+09 1.09642217e+09 1.09642220e+09
 1.09642224e+09 1.09642228e+09 1.09642232e+09 1.09642235e+09
 1.09642239e+09 1.09642243e+09 1.09642246e+09 1.09642250e+09
 1.09642254e+09 1.09642258e+09 1.09642261e+09 1.09642265e+09
 1.09642269e+09 1.09642272e+09 1.09642276e+09 1.09642280e+09
 1.09642284e+09 1.09642287e+09 1.09642291e+09 1.09642295e+09
 1.09642298e+09 1.09642302e+09 1.09642306e+09 1.09642310e+09
 1.09642313e+09 1.09642317e+09 1.09642321e+09 1.09642324e+09
 1.09642328e+09 1.09642332e+09 1.09642335e+09 1.09642339e+09
 1.09642343e+09 1.09642347e+09 1.09642350e+09 1.09642354e+09
 1.09642358e+09 1.09642361e+09 1.09642365e+09 1.09642369e+09
 1.09642373e+09 1.09642376e+09 1.09642380e+09 1.09642384e+09
 1.09642387e+09 1.09642391e+09 1.09642395e+09 1.09642399e+09
 1.09642402e+09 1.09642406e+09 1.09642410e+09 1.09642413e+09
 1.09642417e+09 1.09642421e+09 1.09642424e+09 1.09642428e+09
 1.09642432e+09 1.09642436e+09 1.09642439e+09 1.09642443e+09
