name =JUICE_ROI_GAN_5_0_09
flyby = ['2034 JUL 11 19:50:31', '2034 JUL 12 19:50:31']
Observation TW = <SpiceCell dtype = 1, length = 0, size = 3400, card = 14, is_set = 1, adjust = 0, init = 1, base = 93924625909808, data = 93924625909856>
Res(t) = [2.31423436 2.31177966 2.30932923 2.30688308 2.30444122 2.30200364
 2.29957036 2.29714137 2.29471669 2.29229632 2.28988027 2.28746853
 2.28506111 2.28265803 2.28025928 2.27786487 2.2754748  2.27308908
 2.27070772 2.26833071 2.26595807 2.2635898  2.2612259  2.25886638
 2.25651125 2.2541605  2.25181415 2.24947219 2.24713464 2.2448015
 2.24247277 2.24014846 2.23782857 2.23551311 2.23320209 2.2308955
 2.22859335 2.22629566 2.22400241 2.22171362 2.2194293  2.21714944
 2.21487405 2.21260315 2.21033672 2.20807478 2.20581733 2.20356438
 2.20131593 2.19907198 2.19683255 2.19459763 2.19236723 2.19014136
 2.18792001 2.1857032  2.18349094 2.18128321 2.17908003 2.17688141
 2.17468734 2.17249784 2.17031291 2.16813255 2.16595676 2.16378556
 2.16161894 2.15945692 2.15729949 2.15514666 2.15299843 2.15085482
 2.14871581 2.14658143 2.14445167 2.14232654 2.14020604 2.13809018
 2.13597896 2.13387238 2.13177045 2.12967318 2.12758057 2.12549263
 2.12340935 2.12133074 2.11925681 2.11718756 2.115123   2.11306313
 2.11100795 2.10895747 2.1069117  2.10487063 2.10283427 2.10080263
 2.09877572 2.09675352 2.09473606 2.09272332 2.09071533 2.08871208
 2.08671357 2.08471981 2.08273081 2.08074656 2.07876708 2.07679236
 2.07482242 2.07285725 2.07089686 2.06894125 2.06699042 2.06504439
 2.06310315 2.06116672 2.05923508 2.05730825 2.05538623 2.05346903
 2.05155664 2.04964908 2.04774634 2.04584843 2.04395535 2.04206712
 2.04018372 2.03830517 2.03643146 2.03456261 2.03269862 2.03083948
 2.02898521 2.0271358  2.02529127 2.02345161 2.02161683 2.01978692
 2.01796191 2.01614178 2.01432654 2.01251619 2.01071075 2.00891021
 2.00711457 2.00532384 2.00353802 2.00175712 1.99998114 1.99821008
 1.99644394 1.99468273 1.99292645 1.99117511 1.98942871 1.98768725
 1.98595073 1.98421915 1.98249253 1.98077086 1.97905415 1.9773424
 1.9756356  1.97393378 1.97223692 1.97054503 1.96885812 1.96717618
 1.96549922 1.96382724 1.96216025 1.96049825 1.95884124 1.95718921
 1.95554219 1.95390016 1.95226314 1.95063111 1.9490041  1.94738209
 1.94576509 1.9441531  1.94254613 1.94094418 1.93934725 1.93775534
 1.93616846 1.93458661 1.93300978 1.93143799 1.92987123 1.9283095
 1.92675282 1.92520117 1.92365457 1.92211301 1.9205765  1.91904503
 1.91751862 1.91599726 1.91448095 1.9129697  1.91146351 1.90996238
 1.90846631 1.9069753  1.90548936 1.90400848 1.90253268 1.90106194
 1.89959627 1.89813568 1.89668016 1.89522972 1.89378436 1.89234407
 1.89090886 1.88947874 1.8880537  1.88663374 1.88521887 1.88380909
 1.88240439 1.88100479 1.87961027 1.87822085 1.87683652 1.87545728
 1.87408313 1.87271408 1.87135013 1.86999128 1.86863752 1.86728886
 1.8659453  1.86460684 1.86327349 1.86194523 1.86062208 1.85930403
 1.85799109 1.85668325 1.85538051 1.85408288 1.85279036 1.85150294
 1.85022063 1.84894342 1.84767132 1.84640433 1.84514245 1.84388567
 1.84263401 1.84138745 1.840146   1.83890966 1.83767842 1.8364523
 1.83523128 1.83401537 1.83280457 1.83159888 1.8303983  1.82920282
 1.82801245 1.82682718 1.82564703 1.82447198 1.82330203 1.82213719
 1.82097746 1.81982282 1.8186733  1.81752887 1.81638955 1.81525533
 1.81412621 1.81300219 1.81188327 1.81076945 1.80966073 1.8085571
 1.80745857 1.80636514 1.8052768  1.80419355 1.80311539 1.80204232
 1.80097435 1.79991146 1.79885366 1.79780094 1.79675331 1.79571076
 1.79467329 1.7936409  1.7926136  1.79159136 1.79057421 1.78956213
 1.78855512 1.78755318 1.78655631 1.78556451 1.78457777 1.7835961
 1.78261949 1.78164793 1.78068144 1.77972    1.77876362 1.77781229
 1.77686601 1.77592477 1.77498858 1.77405744 1.77313134 1.77221027
 1.77129424 1.77038325 1.76947728 1.76857635 1.76768044 1.76678956
 1.7659037  1.76502286 1.76414703 1.76327622 1.76241042 1.76154963
 1.76069384 1.75984306 1.75899728 1.75815649 1.7573207  1.7564899
 1.75566409 1.75484326 1.75402741 1.75321655 1.75241065 1.75160974
 1.75081379 1.7500228  1.74923678 1.74845572 1.74767962 1.74690846
 1.74614226 1.745381   1.74462468 1.7438733  1.74312686 1.74238535
 1.74164876 1.7409171  1.74019036 1.73946854 1.73875162 1.73803962
 1.73733252 1.73663032 1.73593302 1.7352406  1.73455308 1.73387044
 1.73319269 1.7325198  1.73185179 1.73118865 1.73053037 1.72987695
 1.72922839 1.72858467 1.7279458  1.72731177 1.72668258 1.72605822
 1.72543869 1.72482398 1.72421409 1.72360901 1.72300875 1.72241328
 1.72182262 1.72123675 1.72065567 1.72007937 1.71950786 1.71894112
 1.71837915 1.71782194 1.7172695  1.71672181 1.71617887 1.71564067
 1.71510721 1.71457849 1.7140545  1.71353522 1.71302067 1.71251083
 1.7120057  1.71150527 1.71100953 1.71051849 1.71003213 1.70955045
 1.70907344 1.7086011  1.70813343 1.70767041 1.70721205 1.70675833
 1.70630925 1.7058648  1.70542498 1.70498978 1.7045592  1.70413323
 1.70371186 1.70329509 1.70288292 1.70247533 1.70207232 1.70167388
 1.70128001 1.7008907  1.70050595 1.70012574 1.69975008 1.69937895
 1.69901236 1.69865028 1.69829273 1.69793968 1.69759114 1.69724709
 1.69690754 1.69657247 1.69624188 1.69591575 1.6955941  1.6952769
 1.69496415 1.69465584 1.69435198 1.69405254 1.69375753 1.69346693
 1.69318075 1.69289897 1.69262158 1.69234858 1.69207997 1.69181573
 1.69155585 1.69130034 1.69104919 1.69080238 1.69055991 1.69032177
 1.69008795 1.68985846 1.68963327 1.68941239 1.68919581 1.68898351
 1.6887755  1.68857176 1.68837228 1.68817707 1.68798611 1.68779939
 1.68761691 1.68743865 1.68726462 1.6870948  1.68692919 1.68676778
 1.68661056 1.68645753 1.68630866 1.68616397 1.68602344 1.68588706
 1.68575482 1.68562673 1.68550276 1.68538291 1.68526718 1.68515555
 1.68504802 1.68494458 1.68484522 1.68474994 1.68465872 1.68457156
 1.68448845 1.68440938 1.68433435 1.68426334 1.68419635 1.68413336
 1.68407438 1.6840194  1.6839684  1.68392137 1.68387831 1.68383922
 1.68380407 1.68377287 1.68374561 1.68372227 1.68370285 1.68368734
 1.68367574 1.68366803 1.6836642  1.68366425 1.68366817 1.68367595
 1.68368758 1.68370306 1.68372237 1.68374551 1.68377246 1.68380323
 1.68383779 1.68387615 1.68391829 1.68396421 1.68401389 1.68406733
 1.68412452 1.68418545 1.68425011 1.6843185  1.6843906  1.6844664
 1.68454591 1.6846291  1.68471597 1.68480652 1.68490072 1.68499858
 1.68510009 1.68520523 1.68531399 1.68542638 1.68554238 1.68566197
 1.68578516 1.68591193 1.68604228 1.68617619 1.68631366 1.68645468
 1.68659923 1.68674732 1.68689892 1.68705404 1.68721266 1.68737478
 1.68754038 1.68770945 1.687882   1.688058   1.68823745 1.68842035
 1.68860667 1.68879642 1.68898958 1.68918614 1.6893861  1.68958945
 1.68979617 1.69000626 1.69021971 1.69043651 1.69065666 1.69088013
 1.69110693 1.69133704 1.69157046 1.69180717 1.69204717 1.69229045
 1.69253699 1.6927868  1.69303986 1.69329615 1.69355568 1.69381843
 1.6940844  1.69435357 1.69462594 1.69490149 1.69518022 1.69546212
 1.69574718 1.69603539 1.69632674 1.69662122 1.69691883 1.69721954
 1.69752337 1.69783028 1.69814029 1.69845337 1.69876952 1.69908873
 1.69941098 1.69973628 1.70006461 1.70039596 1.70073032 1.70106769
 1.70140805 1.7017514  1.70209772 1.70244701 1.70279926 1.70315446
 1.7035126  1.70387367 1.70423766 1.70460456 1.70497437 1.70534707
 1.70572265 1.70610112 1.70648244 1.70686663 1.70725366 1.70764354
 1.70803624 1.70843177 1.7088301  1.70923124 1.70963518 1.7100419
 1.71045139 1.71086365 1.71127867 1.71169644 1.71211695 1.71254018
 1.71296614 1.71339481 1.71382619 1.71426025 1.71469701 1.71513644
 1.71557853 1.71602329 1.71647069 1.71692073 1.7173734  1.7178287
 1.71828661 1.71874712 1.71921023 1.71967592 1.72014419 1.72061503
 1.72108842 1.72156437 1.72204286 1.72252388 1.72300742 1.72349348
 1.72398204 1.7244731  1.72496665 1.72546268 1.72596117 1.72646213
 1.72696554 1.72747139 1.72797968 1.72849039 1.72900352 1.72951905
 1.73003699 1.73055732 1.73108002 1.7316051  1.73213255 1.73266235
 1.73319449 1.73372897 1.73426579 1.73480492 1.73534636 1.73589011
 1.73643615 1.73698447 1.73753507 1.73808794 1.73864307 1.73920045
 1.73976007 1.74032193 1.74088601 1.74145231 1.74202081 1.74259151
 1.74316441 1.74373948 1.74431673 1.74489614 1.74547771 1.74606143
 1.74664728 1.74723527 1.74782538 1.7484176  1.74901193 1.74960835
 1.75020687 1.75080746 1.75141013 1.75201486 1.75262164 1.75323047
 1.75384134 1.75445423 1.75506915 1.75568609 1.75630502 1.75692596
 1.75754888 1.75817378 1.75880066 1.7594295  1.76006029 1.76069303
 1.76132771 1.76196432 1.76260285 1.7632433  1.76388565 1.76452991
 1.76517605 1.76582407 1.76647397 1.76712573 1.76777936 1.76843483
 1.76909214 1.76975129 1.77041226 1.77107505 1.77173965 1.77240606
 1.77307425 1.77374424 1.774416   1.77508953 1.77576482 1.77644187
 1.77712066 1.7778012  1.77848346 1.77916745 1.77985316 1.78054057
 1.78122968 1.78192048 1.78261297 1.78330714 1.78400297 1.78470047
 1.78539962 1.78610041 1.78680285 1.78750691 1.7882126  1.78891991
 1.78962882 1.79033933 1.79105144 1.79176514 1.79248041 1.79319725
 1.79391565 1.79463562 1.79535713 1.79608018 1.79680476 1.79753087
 1.7982585  1.79898764 1.79971829 1.80045043 1.80118407 1.80191918
 1.80265577 1.80339383 1.80413335 1.80487432 1.80561674 1.8063606
 1.80710589 1.80785261 1.80860074 1.80935028 1.81010123 1.81085358
 1.81160731 1.81236243 1.81311892 1.81387678 1.81463601 1.81539658
 1.81615851 1.81692178 1.81768638 1.8184523  1.81921955 1.81998811
 1.82075798 1.82152915 1.82230161 1.82307535 1.82385038 1.82462668
 1.82540424 1.82618307 1.82696314 1.82774446 1.82852703 1.82931082
 1.83009584 1.83088208 1.83166953 1.83245819 1.83324805 1.83403911
 1.83483135 1.83562477 1.83641936 1.83721512 1.83801204 1.83881012
 1.83960935 1.84040971 1.84121122 1.84201385 1.8428176  1.84362247
 1.84442846 1.84523554 1.84604373 1.846853   1.84766336 1.8484748
 1.84928732 1.8501009  1.85091554 1.85173123 1.85254798 1.85336577
 1.85418459 1.85500444 1.85582532 1.85664722 1.85747013 1.85829405
 1.85911897 1.85994488 1.86077178 1.86159966 1.86242852 1.86325835
 1.86408915 1.86492091 1.86575362 1.86658728 1.86742188 1.86825742
 1.86909389 1.86993129 1.8707696  1.87160883 1.87244896 1.87329
 1.87413194 1.87497477 1.87581848 1.87666308 1.87750855 1.87835489
 1.87920209 1.88005015 1.88089907 1.88174883 1.88259943 1.88345088
 1.88430315 1.88515625 1.88601017 1.88686491 1.88772045 1.8885768
 1.88943396 1.8902919  1.89115064 1.89201016 1.89287046 1.89373153
 1.89459338 1.89545598 1.89631935 1.89718347 1.89804833 1.89891394
 1.89978029 1.90064738 1.90151519 1.90238372 1.90325298 1.90412295
 1.90499362 1.905865   1.90673708 1.90760986 1.90848332 1.90935747
 1.9102323  1.9111078  1.91198398 1.91286082 1.91373832 1.91461648
 1.91549529 1.91637475 1.91725485 1.91813559 1.91901696 1.91989896
 1.92078158 1.92166483 1.92254869 1.92343316 1.92431823 1.92520391
 1.92609019 1.92697706 1.92786452 1.92875256 1.92964118 1.93053038
 1.93142015 1.93231048 1.93320138 1.93409284 1.93498485 1.93587741
 1.93677052 1.93766417 1.93855836 1.93945308 1.94034833 1.9412441
 1.9421404  1.94303721 1.94393454 1.94483237 1.94573071 1.94662956
 1.94752889 1.94842873 1.94932905 1.95022985 1.95113114 1.95203291
 1.95293514 1.95383785 1.95474103 1.95564467 1.95654876 1.95745331
 1.95835831 1.95926376 1.96016966 1.96107599 1.96198276 1.96288996
 1.96379759 1.96470565 1.96561412 1.96652302 1.96743233 1.96834206
 1.96925219 1.97016272 1.97107366 1.97198499]
t = [1.08953230e+09 1.08953239e+09 1.08953247e+09 1.08953256e+09
 1.08953265e+09 1.08953273e+09 1.08953282e+09 1.08953291e+09
 1.08953299e+09 1.08953308e+09 1.08953317e+09 1.08953325e+09
 1.08953334e+09 1.08953342e+09 1.08953351e+09 1.08953360e+09
 1.08953368e+09 1.08953377e+09 1.08953386e+09 1.08953394e+09
 1.08953403e+09 1.08953412e+09 1.08953420e+09 1.08953429e+09
 1.08953438e+09 1.08953446e+09 1.08953455e+09 1.08953464e+09
 1.08953472e+09 1.08953481e+09 1.08953489e+09 1.08953498e+09
 1.08953507e+09 1.08953515e+09 1.08953524e+09 1.08953533e+09
 1.08953541e+09 1.08953550e+09 1.08953559e+09 1.08953567e+09
 1.08953576e+09 1.08953585e+09 1.08953593e+09 1.08953602e+09
 1.08953611e+09 1.08953619e+09 1.08953628e+09 1.08953637e+09
 1.08953645e+09 1.08953654e+09 1.08953662e+09 1.08953671e+09
 1.08953680e+09 1.08953688e+09 1.08953697e+09 1.08953706e+09
 1.08953714e+09 1.08953723e+09 1.08953732e+09 1.08953740e+09
 1.08953749e+09 1.08953758e+09 1.08953766e+09 1.08953775e+09
 1.08953784e+09 1.08953792e+09 1.08953801e+09 1.08953809e+09
 1.08953818e+09 1.08953827e+09 1.08953835e+09 1.08953844e+09
 1.08953853e+09 1.08953861e+09 1.08953870e+09 1.08953879e+09
 1.08953887e+09 1.08953896e+09 1.08953905e+09 1.08953913e+09
 1.08953922e+09 1.08953931e+09 1.08953939e+09 1.08953948e+09
 1.08953957e+09 1.08953965e+09 1.08953974e+09 1.08953982e+09
 1.08953991e+09 1.08954000e+09 1.08954008e+09 1.08954017e+09
 1.08954026e+09 1.08954034e+09 1.08954043e+09 1.08954052e+09
 1.08954060e+09 1.08954069e+09 1.08954078e+09 1.08954086e+09
 1.08954095e+09 1.08954104e+09 1.08954112e+09 1.08954121e+09
 1.08954129e+09 1.08954138e+09 1.08954147e+09 1.08954155e+09
 1.08954164e+09 1.08954173e+09 1.08954181e+09 1.08954190e+09
 1.08954199e+09 1.08954207e+09 1.08954216e+09 1.08954225e+09
 1.08954233e+09 1.08954242e+09 1.08954251e+09 1.08954259e+09
 1.08954268e+09 1.08954277e+09 1.08954285e+09 1.08954294e+09
 1.08954302e+09 1.08954311e+09 1.08954320e+09 1.08954328e+09
 1.08954337e+09 1.08954346e+09 1.08954354e+09 1.08954363e+09
 1.08954372e+09 1.08954380e+09 1.08954389e+09 1.08954398e+09
 1.08954406e+09 1.08954415e+09 1.08954424e+09 1.08954432e+09
 1.08954441e+09 1.08954449e+09 1.08954458e+09 1.08954467e+09
 1.08954475e+09 1.08954484e+09 1.08954493e+09 1.08954501e+09
 1.08954510e+09 1.08954519e+09 1.08954527e+09 1.08954536e+09
 1.08954545e+09 1.08954553e+09 1.08954562e+09 1.08954571e+09
 1.08954579e+09 1.08954588e+09 1.08954597e+09 1.08954605e+09
 1.08954614e+09 1.08954622e+09 1.08954631e+09 1.08954640e+09
 1.08954648e+09 1.08954657e+09 1.08954666e+09 1.08954674e+09
 1.08954683e+09 1.08954692e+09 1.08954700e+09 1.08954709e+09
 1.08954718e+09 1.08954726e+09 1.08954735e+09 1.08954744e+09
 1.08954752e+09 1.08954761e+09 1.08954769e+09 1.08954778e+09
 1.08954787e+09 1.08954795e+09 1.08954804e+09 1.08954813e+09
 1.08954821e+09 1.08954830e+09 1.08954839e+09 1.08954847e+09
 1.08954856e+09 1.08954865e+09 1.08954873e+09 1.08954882e+09
 1.08954891e+09 1.08954899e+09 1.08954908e+09 1.08954917e+09
 1.08954925e+09 1.08954934e+09 1.08954942e+09 1.08954951e+09
 1.08954960e+09 1.08954968e+09 1.08954977e+09 1.08954986e+09
 1.08954994e+09 1.08955003e+09 1.08955012e+09 1.08955020e+09
 1.08955029e+09 1.08955038e+09 1.08955046e+09 1.08955055e+09
 1.08955064e+09 1.08955072e+09 1.08955081e+09 1.08955089e+09
 1.08955098e+09 1.08955107e+09 1.08955115e+09 1.08955124e+09
 1.08955133e+09 1.08955141e+09 1.08955150e+09 1.08955159e+09
 1.08955167e+09 1.08955176e+09 1.08955185e+09 1.08955193e+09
 1.08955202e+09 1.08955211e+09 1.08955219e+09 1.08955228e+09
 1.08955237e+09 1.08955245e+09 1.08955254e+09 1.08955262e+09
 1.08955271e+09 1.08955280e+09 1.08955288e+09 1.08955297e+09
 1.08955306e+09 1.08955314e+09 1.08955323e+09 1.08955332e+09
 1.08955340e+09 1.08955349e+09 1.08955358e+09 1.08955366e+09
 1.08955375e+09 1.08955384e+09 1.08955392e+09 1.08955401e+09
 1.08955409e+09 1.08955418e+09 1.08955427e+09 1.08955435e+09
 1.08955444e+09 1.08955453e+09 1.08955461e+09 1.08955470e+09
 1.08955479e+09 1.08955487e+09 1.08955496e+09 1.08955505e+09
 1.08955513e+09 1.08955522e+09 1.08955531e+09 1.08955539e+09
 1.08955548e+09 1.08955557e+09 1.08955565e+09 1.08955574e+09
 1.08955582e+09 1.08955591e+09 1.08955600e+09 1.08955608e+09
 1.08955617e+09 1.08955626e+09 1.08955634e+09 1.08955643e+09
 1.08955652e+09 1.08955660e+09 1.08955669e+09 1.08955678e+09
 1.08955686e+09 1.08955695e+09 1.08955704e+09 1.08955712e+09
 1.08955721e+09 1.08955729e+09 1.08955738e+09 1.08955747e+09
 1.08955755e+09 1.08955764e+09 1.08955773e+09 1.08955781e+09
 1.08955790e+09 1.08955799e+09 1.08955807e+09 1.08955816e+09
 1.08955825e+09 1.08955833e+09 1.08955842e+09 1.08955851e+09
 1.08955859e+09 1.08955868e+09 1.08955877e+09 1.08955885e+09
 1.08955894e+09 1.08955902e+09 1.08955911e+09 1.08955920e+09
 1.08955928e+09 1.08955937e+09 1.08955946e+09 1.08955954e+09
 1.08955963e+09 1.08955972e+09 1.08955980e+09 1.08955989e+09
 1.08955998e+09 1.08956006e+09 1.08956015e+09 1.08956024e+09
 1.08956032e+09 1.08956041e+09 1.08956049e+09 1.08956058e+09
 1.08956067e+09 1.08956075e+09 1.08956084e+09 1.08956093e+09
 1.08956101e+09 1.08956110e+09 1.08956119e+09 1.08956127e+09
 1.08956136e+09 1.08956145e+09 1.08956153e+09 1.08956162e+09
 1.08956171e+09 1.08956179e+09 1.08956188e+09 1.08956197e+09
 1.08956205e+09 1.08956214e+09 1.08956222e+09 1.08956231e+09
 1.08956240e+09 1.08956248e+09 1.08956257e+09 1.08956266e+09
 1.08956274e+09 1.08956283e+09 1.08956292e+09 1.08956300e+09
 1.08956309e+09 1.08956318e+09 1.08956326e+09 1.08956335e+09
 1.08956344e+09 1.08956352e+09 1.08956361e+09 1.08956369e+09
 1.08956378e+09 1.08956387e+09 1.08956395e+09 1.08956404e+09
 1.08956413e+09 1.08956421e+09 1.08956430e+09 1.08956439e+09
 1.08956447e+09 1.08956456e+09 1.08956465e+09 1.08956473e+09
 1.08956482e+09 1.08956491e+09 1.08956499e+09 1.08956508e+09
 1.08956517e+09 1.08956525e+09 1.08956534e+09 1.08956542e+09
 1.08956551e+09 1.08956560e+09 1.08956568e+09 1.08956577e+09
 1.08956586e+09 1.08956594e+09 1.08956603e+09 1.08956612e+09
 1.08956620e+09 1.08956629e+09 1.08956638e+09 1.08956646e+09
 1.08956655e+09 1.08956664e+09 1.08956672e+09 1.08956681e+09
 1.08956689e+09 1.08956698e+09 1.08956707e+09 1.08956715e+09
 1.08956724e+09 1.08956733e+09 1.08956741e+09 1.08956750e+09
 1.08956759e+09 1.08956767e+09 1.08956776e+09 1.08956785e+09
 1.08956793e+09 1.08956802e+09 1.08956811e+09 1.08956819e+09
 1.08956828e+09 1.08956837e+09 1.08956845e+09 1.08956854e+09
 1.08956862e+09 1.08956871e+09 1.08956880e+09 1.08956888e+09
 1.08956897e+09 1.08956906e+09 1.08956914e+09 1.08956923e+09
 1.08956932e+09 1.08956940e+09 1.08956949e+09 1.08956958e+09
 1.08956966e+09 1.08956975e+09 1.08956984e+09 1.08956992e+09
 1.08957001e+09 1.08957009e+09 1.08957018e+09 1.08957027e+09
 1.08957035e+09 1.08957044e+09 1.08957053e+09 1.08957061e+09
 1.08957070e+09 1.08957079e+09 1.08957087e+09 1.08957096e+09
 1.08957105e+09 1.08957113e+09 1.08957122e+09 1.08957131e+09
 1.08957139e+09 1.08957148e+09 1.08957157e+09 1.08957165e+09
 1.08957174e+09 1.08957182e+09 1.08957191e+09 1.08957200e+09
 1.08957208e+09 1.08957217e+09 1.08957226e+09 1.08957234e+09
 1.08957243e+09 1.08957252e+09 1.08957260e+09 1.08957269e+09
 1.08957278e+09 1.08957286e+09 1.08957295e+09 1.08957304e+09
 1.08957312e+09 1.08957321e+09 1.08957329e+09 1.08957338e+09
 1.08957347e+09 1.08957355e+09 1.08957364e+09 1.08957373e+09
 1.08957381e+09 1.08957390e+09 1.08957399e+09 1.08957407e+09
 1.08957416e+09 1.08957425e+09 1.08957433e+09 1.08957442e+09
 1.08957451e+09 1.08957459e+09 1.08957468e+09 1.08957477e+09
 1.08957485e+09 1.08957494e+09 1.08957502e+09 1.08957511e+09
 1.08957520e+09 1.08957528e+09 1.08957537e+09 1.08957546e+09
 1.08957554e+09 1.08957563e+09 1.08957572e+09 1.08957580e+09
 1.08957589e+09 1.08957598e+09 1.08957606e+09 1.08957615e+09
 1.08957624e+09 1.08957632e+09 1.08957641e+09 1.08957649e+09
 1.08957658e+09 1.08957667e+09 1.08957675e+09 1.08957684e+09
 1.08957693e+09 1.08957701e+09 1.08957710e+09 1.08957719e+09
 1.08957727e+09 1.08957736e+09 1.08957745e+09 1.08957753e+09
 1.08957762e+09 1.08957771e+09 1.08957779e+09 1.08957788e+09
 1.08957797e+09 1.08957805e+09 1.08957814e+09 1.08957822e+09
 1.08957831e+09 1.08957840e+09 1.08957848e+09 1.08957857e+09
 1.08957866e+09 1.08957874e+09 1.08957883e+09 1.08957892e+09
 1.08957900e+09 1.08957909e+09 1.08957918e+09 1.08957926e+09
 1.08957935e+09 1.08957944e+09 1.08957952e+09 1.08957961e+09
 1.08957969e+09 1.08957978e+09 1.08957987e+09 1.08957995e+09
 1.08958004e+09 1.08958013e+09 1.08958021e+09 1.08958030e+09
 1.08958039e+09 1.08958047e+09 1.08958056e+09 1.08958065e+09
