name =JUICE_ROI_GAN_4_5_06
flyby = ['2034 JUL 11 19:50:31', '2034 JUL 12 19:50:31']
Observation TW = <SpiceCell dtype = 1, length = 0, size = 3400, card = 14, is_set = 1, adjust = 0, init = 1, base = 94191841846400, data = 94191841846448>
Res(t) = [1.94252711 1.94111421 1.93970501 1.9382995  1.9368977  1.93549959
 1.93410519 1.9327145  1.93132751 1.92994423 1.92856466 1.9271888
 1.92581665 1.92444822 1.92308351 1.92172251 1.92036523 1.91901168
 1.91766184 1.91631573 1.91497335 1.91363469 1.91229977 1.91096857
 1.9096411  1.90831737 1.90699737 1.90568111 1.90436859 1.9030598
 1.90175476 1.90045346 1.8991559  1.89786209 1.89657202 1.8952857
 1.89400313 1.89272431 1.89144924 1.89017793 1.88891037 1.88764656
 1.88638651 1.88513023 1.8838777  1.88262893 1.88138392 1.88014268
 1.8789052  1.87767149 1.87644154 1.87521536 1.87399296 1.87277432
 1.87155946 1.87034836 1.86914105 1.8679375  1.86673774 1.86554175
 1.86434954 1.86316111 1.86197646 1.86079559 1.85961851 1.85844521
 1.85727569 1.85610996 1.85494802 1.85378986 1.8526355  1.85148492
 1.85033813 1.84919514 1.84805594 1.84692053 1.84578892 1.8446611
 1.84353707 1.84241685 1.84130042 1.84018779 1.83907896 1.83797393
 1.8368727  1.83577527 1.83468165 1.83359182 1.8325058  1.83142359
 1.83034518 1.82927057 1.82819978 1.82713279 1.8260696  1.82501023
 1.82395466 1.82290291 1.82185496 1.82081082 1.8197705  1.81873398
 1.81770128 1.81667239 1.81564732 1.81462605 1.8136086  1.81259497
 1.81158515 1.81057914 1.80957695 1.80857857 1.80758401 1.80659327
 1.80560635 1.80462324 1.80364394 1.80266847 1.80169681 1.80072897
 1.79976495 1.79880475 1.79784836 1.79689579 1.79594704 1.79500211
 1.794061   1.79312371 1.79219024 1.79126058 1.79033475 1.78941273
 1.78849453 1.78758015 1.78666959 1.78576285 1.78485993 1.78396082
 1.78306554 1.78217407 1.78128642 1.78040259 1.77952257 1.77864637
 1.77777399 1.77690543 1.77604069 1.77517976 1.77432264 1.77346934
 1.77261986 1.77177419 1.77093234 1.7700943  1.76926008 1.76842967
 1.76760307 1.76678028 1.76596131 1.76514615 1.76433479 1.76352725
 1.76272352 1.7619236  1.76112748 1.76033518 1.75954668 1.75876198
 1.7579811  1.75720401 1.75643073 1.75566126 1.75489559 1.75413372
 1.75337565 1.75262138 1.75187091 1.75112424 1.75038137 1.74964229
 1.74890701 1.74817553 1.74744784 1.74672394 1.74600383 1.74528751
 1.74457499 1.74386625 1.7431613  1.74246013 1.74176275 1.74106916
 1.74037935 1.73969332 1.73901107 1.73833259 1.7376579  1.73698698
 1.73631984 1.73565647 1.73499688 1.73434106 1.733689   1.73304071
 1.73239619 1.73175544 1.73111845 1.73048522 1.72985576 1.72923005
 1.7286081  1.7279899  1.72737546 1.72676478 1.72615784 1.72555465
 1.72495522 1.72435952 1.72376758 1.72317937 1.72259491 1.72201418
 1.72143719 1.72086394 1.72029442 1.71972863 1.71916657 1.71860824
 1.71805363 1.71750275 1.71695559 1.71641214 1.71587242 1.71533641
 1.71480411 1.71427553 1.71375065 1.71322949 1.71271202 1.71219826
 1.7116882  1.71118183 1.71067917 1.71018019 1.70968491 1.70919331
 1.7087054  1.70822118 1.70774064 1.70726377 1.70679058 1.70632107
 1.70585523 1.70539305 1.70493455 1.7044797  1.70402852 1.703581
 1.70313713 1.70269692 1.70226036 1.70182744 1.70139818 1.70097255
 1.70055056 1.70013221 1.6997175  1.69930641 1.69889896 1.69849513
 1.69809492 1.69769833 1.69730536 1.696916   1.69653026 1.69614812
 1.69576958 1.69539465 1.69502332 1.69465558 1.69429144 1.69393088
 1.69357391 1.69322052 1.69287071 1.69252448 1.69218182 1.69184274
 1.69150721 1.69117525 1.69084686 1.69052201 1.69020072 1.68988298
 1.68956879 1.68925814 1.68895103 1.68864745 1.68834741 1.68805089
 1.6877579  1.68746844 1.68718248 1.68690005 1.68662112 1.6863457
 1.68607379 1.68580537 1.68554045 1.68527902 1.68502108 1.68476663
 1.68451565 1.68426816 1.68402413 1.68378357 1.68354648 1.68331285
 1.68308268 1.68285596 1.68263269 1.68241286 1.68219647 1.68198353
 1.68177401 1.68156792 1.68136526 1.68116602 1.68097019 1.68077778
 1.68058878 1.68040317 1.68022097 1.68004216 1.67986675 1.67969472
 1.67952607 1.6793608  1.6791989  1.67904038 1.67888521 1.67873341
 1.67858496 1.67843987 1.67829812 1.67815971 1.67802464 1.6778929
 1.6777645  1.67763941 1.67751765 1.6773992  1.67728405 1.67717222
 1.67706368 1.67695845 1.6768565  1.67675784 1.67666246 1.67657035
 1.67648152 1.67639596 1.67631366 1.67623461 1.67615882 1.67608627
 1.67601697 1.67595091 1.67588807 1.67582847 1.67577209 1.67571892
 1.67566897 1.67562223 1.67557868 1.67553834 1.67550119 1.67546722
 1.67543644 1.67540883 1.6753844  1.67536313 1.67534502 1.67533007
 1.67531826 1.67530961 1.67530409 1.67530171 1.67530246 1.67530633
 1.67531332 1.67532342 1.67533663 1.67535294 1.67537235 1.67539485
 1.67542044 1.6754491  1.67548085 1.67551566 1.67555353 1.67559447
 1.67563845 1.67568548 1.67573556 1.67578867 1.67584481 1.67590398
 1.67596616 1.67603136 1.67609956 1.67617077 1.67624497 1.67632216
 1.67640234 1.67648549 1.67657162 1.67666072 1.67675277 1.67684779
 1.67694575 1.67704665 1.6771505  1.67725727 1.67736697 1.67747959
 1.67759513 1.67771357 1.67783491 1.67795915 1.67808629 1.6782163
 1.67834919 1.67848496 1.67862359 1.67876508 1.67890942 1.67905661
 1.67920665 1.67935952 1.67951521 1.67967373 1.67983507 1.67999922
 1.68016617 1.68033592 1.68050846 1.68068379 1.6808619  1.68104278
 1.68122643 1.68141284 1.681602   1.68179391 1.68198857 1.68218596
 1.68238607 1.68258891 1.68279447 1.68300274 1.68321371 1.68342738
 1.68364373 1.68386278 1.6840845  1.68430889 1.68453594 1.68476566
 1.68499803 1.68523304 1.68547069 1.68571097 1.68595388 1.68619941
 1.68644755 1.6866983  1.68695165 1.68720759 1.68746612 1.68772722
 1.68799091 1.68825715 1.68852596 1.68879732 1.68907123 1.68934768
 1.68962666 1.68990817 1.69019219 1.69047873 1.69076778 1.69105933
 1.69135337 1.6916499  1.69194891 1.69225039 1.69255434 1.69286074
 1.6931696  1.69348091 1.69379465 1.69411083 1.69442943 1.69475046
 1.69507389 1.69539973 1.69572797 1.6960586  1.69639161 1.696727
 1.69706476 1.69740489 1.69774738 1.69809221 1.69843939 1.6987889
 1.69914075 1.69949492 1.6998514  1.70021019 1.70057129 1.70093468
 1.70130036 1.70166832 1.70203855 1.70241106 1.70278582 1.70316283
 1.7035421  1.7039236  1.70430733 1.7046933  1.70508148 1.70547187
 1.70586446 1.70625926 1.70665624 1.70705541 1.70745676 1.70786027
 1.70826595 1.70867379 1.70908377 1.70949589 1.70991015 1.71032654
 1.71074505 1.71116567 1.7115884  1.71201323 1.71244015 1.71286915
 1.71330024 1.71373339 1.71416861 1.71460589 1.71504522 1.71548659
 1.71593    1.71637543 1.71682289 1.71727236 1.71772384 1.71817732
 1.7186328  1.71909026 1.7195497  1.72001112 1.72047449 1.72093983
 1.72140712 1.72187635 1.72234752 1.72282062 1.72329565 1.72377258
 1.72425143 1.72473218 1.72521482 1.72569936 1.72618577 1.72667405
 1.7271642  1.72765621 1.72815008 1.72864578 1.72914333 1.7296427
 1.7301439  1.73064692 1.73115175 1.73165838 1.7321668  1.73267701
 1.73318901 1.73370277 1.73421831 1.7347356  1.73525465 1.73577545
 1.73629798 1.73682224 1.73734823 1.73787594 1.73840536 1.73893648
 1.7394693  1.7400038  1.74053999 1.74107786 1.74161739 1.74215859
 1.74270144 1.74324593 1.74379207 1.74433984 1.74488923 1.74544025
 1.74599287 1.74654711 1.74710294 1.74766036 1.74821936 1.74877994
 1.74934209 1.74990581 1.75047108 1.7510379  1.75160626 1.75217616
 1.75274758 1.75332053 1.75389499 1.75447096 1.75504842 1.75562738
 1.75620783 1.75678976 1.75737316 1.75795802 1.75854434 1.75913212
 1.75972134 1.76031199 1.76090408 1.76149759 1.76209252 1.76268886
 1.76328661 1.76388574 1.76448627 1.76508818 1.76569147 1.76629613
 1.76690215 1.76750952 1.76811824 1.7687283  1.7693397  1.76995243
 1.77056648 1.77118184 1.77179851 1.77241648 1.77303574 1.77365629
 1.77427812 1.77490123 1.7755256  1.77615123 1.77677811 1.77740624
 1.77803562 1.77866622 1.77929805 1.7799311  1.78056536 1.78120083
 1.7818375  1.78247536 1.78311441 1.78375464 1.78439604 1.78503861
 1.78568233 1.78632721 1.78697324 1.7876204  1.7882687  1.78891813
 1.78956867 1.79022033 1.79087309 1.79152696 1.79218192 1.79283796
 1.79349509 1.79415329 1.79481256 1.79547289 1.79613427 1.7967967
 1.79746017 1.79812468 1.79879021 1.79945677 1.80012434 1.80079293
 1.80146251 1.80213309 1.80280466 1.80347722 1.80415075 1.80482525
 1.80550072 1.80617714 1.80685452 1.80753284 1.8082121  1.80889229
 1.80957341 1.81025544 1.8109384  1.81162226 1.81230701 1.81299267
 1.81367921 1.81436664 1.81505494 1.81574411 1.81643414 1.81712504
 1.81781678 1.81850937 1.81920279 1.81989705 1.82059214 1.82128804
 1.82198476 1.82268229 1.82338062 1.82407974 1.82477966 1.82548036
 1.82618183 1.82688408 1.8275871  1.82829087 1.82899539 1.82970067
 1.83040668 1.83111343 1.83182091 1.83252911 1.83323803 1.83394766
 1.834658   1.83536904 1.83608077 1.83679319 1.83750629 1.83822006
 1.83893451 1.83964962 1.84036539 1.84108181 1.84179888 1.84251659
 1.84323493 1.84395391 1.84467351 1.84539372 1.84611455 1.84683599
 1.84755802 1.84828065 1.84900387 1.84972768 1.85045206 1.85117701
 1.85190253 1.85262861 1.85335525 1.85408243 1.85481017 1.85553843
 1.85626724 1.85699657 1.85772642 1.85845679 1.85918766 1.85991905
 1.86065093 1.86138331 1.86211618 1.86284953 1.86358336 1.86431766
 1.86505243 1.86578765 1.86652334 1.86725948 1.86799606 1.86873308
 1.86947054 1.87020843 1.87094674 1.87168547 1.87242461 1.87316416
 1.87390412 1.87464447 1.87538521 1.87612634 1.87686786 1.87760975
 1.87835201 1.87909464 1.87983763 1.88058098 1.88132467 1.88206872
 1.8828131  1.88355782 1.88430287 1.88504825 1.88579394 1.88653995
 1.88728628 1.8880329  1.88877983 1.88952706 1.89027457 1.89102237
 1.89177045 1.8925188  1.89326743 1.89401632 1.89476547 1.89551488
 1.89626454 1.89701444 1.89776459 1.89851497 1.89926559 1.90001643
 1.90076749 1.90151877 1.90227027 1.90302197 1.90377387 1.90452597
 1.90527827 1.90603076 1.90678342 1.90753627 1.9082893  1.90904249
 1.90979585 1.91054937 1.91130305 1.91205688 1.91281085 1.91356497
 1.91431923 1.91507362 1.91582814 1.91658279 1.91733755 1.91809243
 1.91884742 1.91960252 1.92035772 1.92111302 1.92186842 1.9226239
 1.92337946 1.92413511 1.92489083 1.92564663 1.92640249 1.92715841
 1.9279144  1.92867044 1.92942652 1.93018266 1.93093884 1.93169505
 1.9324513  1.93320757 1.93396387 1.9347202  1.93547653 1.93623289
 1.93698925 1.93774561 1.93850197 1.93925833 1.94001469 1.94077103
 1.94152735 1.94228365 1.94303993 1.94379619 1.94455241 1.94530859
 1.94606473 1.94682083 1.94757689 1.94833289 1.94908883 1.94984472
 1.95060054 1.95135629 1.95211197 1.95286758 1.95362311 1.95437856
 1.95513392 1.95588919 1.95664437 1.95739944 1.95815442 1.95890929
 1.95966406 1.96041871 1.96117324 1.96192766 1.96268195 1.96343612
 1.96419015 1.96494405 1.96569781 1.96645143 1.9672049  1.96795823
 1.96871141 1.96946442 1.97021728 1.97096998 1.97172251 1.97247487
 1.97322706 1.97397907 1.9747309  1.97548255 1.97623401 1.97698529
 1.97773636 1.97848725 1.97923793 1.9799884  1.98073868 1.98148874
 1.98223858 1.98298822 1.98373763 1.98448681 1.98523578 1.98598451
 1.98673301 1.98748127 1.98822929 1.98897708 1.98972461 1.9904719
 1.99121894 1.99196572 1.99271224 1.9934585  1.9942045  1.99495023
 1.99569569 1.99644088 1.99718579 1.99793043 1.99867478 1.99941884
 2.00016262 2.00090611 2.0016493  2.00239219 2.00313479 2.00387708
 2.00461907 2.00536075 2.00610212 2.00684317 2.00758391 2.00832433
 2.00906442 2.00980419 2.01054364 2.01128275 2.01202153 2.01275997
 2.01349807 2.01423583 2.01497325 2.01571032]
t = [1.08954235e+09 1.08954243e+09 1.08954250e+09 1.08954258e+09
 1.08954266e+09 1.08954273e+09 1.08954281e+09 1.08954289e+09
 1.08954296e+09 1.08954304e+09 1.08954311e+09 1.08954319e+09
 1.08954327e+09 1.08954334e+09 1.08954342e+09 1.08954350e+09
 1.08954357e+09 1.08954365e+09 1.08954373e+09 1.08954380e+09
 1.08954388e+09 1.08954396e+09 1.08954403e+09 1.08954411e+09
 1.08954418e+09 1.08954426e+09 1.08954434e+09 1.08954441e+09
 1.08954449e+09 1.08954457e+09 1.08954464e+09 1.08954472e+09
 1.08954480e+09 1.08954487e+09 1.08954495e+09 1.08954503e+09
 1.08954510e+09 1.08954518e+09 1.08954525e+09 1.08954533e+09
 1.08954541e+09 1.08954548e+09 1.08954556e+09 1.08954564e+09
 1.08954571e+09 1.08954579e+09 1.08954587e+09 1.08954594e+09
 1.08954602e+09 1.08954610e+09 1.08954617e+09 1.08954625e+09
 1.08954632e+09 1.08954640e+09 1.08954648e+09 1.08954655e+09
 1.08954663e+09 1.08954671e+09 1.08954678e+09 1.08954686e+09
 1.08954694e+09 1.08954701e+09 1.08954709e+09 1.08954717e+09
 1.08954724e+09 1.08954732e+09 1.08954739e+09 1.08954747e+09
 1.08954755e+09 1.08954762e+09 1.08954770e+09 1.08954778e+09
 1.08954785e+09 1.08954793e+09 1.08954801e+09 1.08954808e+09
 1.08954816e+09 1.08954824e+09 1.08954831e+09 1.08954839e+09
 1.08954846e+09 1.08954854e+09 1.08954862e+09 1.08954869e+09
 1.08954877e+09 1.08954885e+09 1.08954892e+09 1.08954900e+09
 1.08954908e+09 1.08954915e+09 1.08954923e+09 1.08954930e+09
 1.08954938e+09 1.08954946e+09 1.08954953e+09 1.08954961e+09
 1.08954969e+09 1.08954976e+09 1.08954984e+09 1.08954992e+09
 1.08954999e+09 1.08955007e+09 1.08955015e+09 1.08955022e+09
 1.08955030e+09 1.08955037e+09 1.08955045e+09 1.08955053e+09
 1.08955060e+09 1.08955068e+09 1.08955076e+09 1.08955083e+09
 1.08955091e+09 1.08955099e+09 1.08955106e+09 1.08955114e+09
 1.08955122e+09 1.08955129e+09 1.08955137e+09 1.08955144e+09
 1.08955152e+09 1.08955160e+09 1.08955167e+09 1.08955175e+09
 1.08955183e+09 1.08955190e+09 1.08955198e+09 1.08955206e+09
 1.08955213e+09 1.08955221e+09 1.08955229e+09 1.08955236e+09
 1.08955244e+09 1.08955251e+09 1.08955259e+09 1.08955267e+09
 1.08955274e+09 1.08955282e+09 1.08955290e+09 1.08955297e+09
 1.08955305e+09 1.08955313e+09 1.08955320e+09 1.08955328e+09
 1.08955336e+09 1.08955343e+09 1.08955351e+09 1.08955358e+09
 1.08955366e+09 1.08955374e+09 1.08955381e+09 1.08955389e+09
 1.08955397e+09 1.08955404e+09 1.08955412e+09 1.08955420e+09
 1.08955427e+09 1.08955435e+09 1.08955443e+09 1.08955450e+09
 1.08955458e+09 1.08955465e+09 1.08955473e+09 1.08955481e+09
 1.08955488e+09 1.08955496e+09 1.08955504e+09 1.08955511e+09
 1.08955519e+09 1.08955527e+09 1.08955534e+09 1.08955542e+09
 1.08955550e+09 1.08955557e+09 1.08955565e+09 1.08955572e+09
 1.08955580e+09 1.08955588e+09 1.08955595e+09 1.08955603e+09
 1.08955611e+09 1.08955618e+09 1.08955626e+09 1.08955634e+09
 1.08955641e+09 1.08955649e+09 1.08955657e+09 1.08955664e+09
 1.08955672e+09 1.08955679e+09 1.08955687e+09 1.08955695e+09
 1.08955702e+09 1.08955710e+09 1.08955718e+09 1.08955725e+09
 1.08955733e+09 1.08955741e+09 1.08955748e+09 1.08955756e+09
 1.08955764e+09 1.08955771e+09 1.08955779e+09 1.08955786e+09
 1.08955794e+09 1.08955802e+09 1.08955809e+09 1.08955817e+09
 1.08955825e+09 1.08955832e+09 1.08955840e+09 1.08955848e+09
 1.08955855e+09 1.08955863e+09 1.08955871e+09 1.08955878e+09
 1.08955886e+09 1.08955893e+09 1.08955901e+09 1.08955909e+09
 1.08955916e+09 1.08955924e+09 1.08955932e+09 1.08955939e+09
 1.08955947e+09 1.08955955e+09 1.08955962e+09 1.08955970e+09
 1.08955978e+09 1.08955985e+09 1.08955993e+09 1.08956000e+09
 1.08956008e+09 1.08956016e+09 1.08956023e+09 1.08956031e+09
 1.08956039e+09 1.08956046e+09 1.08956054e+09 1.08956062e+09
 1.08956069e+09 1.08956077e+09 1.08956085e+09 1.08956092e+09
 1.08956100e+09 1.08956107e+09 1.08956115e+09 1.08956123e+09
 1.08956130e+09 1.08956138e+09 1.08956146e+09 1.08956153e+09
 1.08956161e+09 1.08956169e+09 1.08956176e+09 1.08956184e+09
 1.08956192e+09 1.08956199e+09 1.08956207e+09 1.08956214e+09
 1.08956222e+09 1.08956230e+09 1.08956237e+09 1.08956245e+09
 1.08956253e+09 1.08956260e+09 1.08956268e+09 1.08956276e+09
 1.08956283e+09 1.08956291e+09 1.08956299e+09 1.08956306e+09
 1.08956314e+09 1.08956321e+09 1.08956329e+09 1.08956337e+09
 1.08956344e+09 1.08956352e+09 1.08956360e+09 1.08956367e+09
 1.08956375e+09 1.08956383e+09 1.08956390e+09 1.08956398e+09
 1.08956406e+09 1.08956413e+09 1.08956421e+09 1.08956428e+09
 1.08956436e+09 1.08956444e+09 1.08956451e+09 1.08956459e+09
 1.08956467e+09 1.08956474e+09 1.08956482e+09 1.08956490e+09
 1.08956497e+09 1.08956505e+09 1.08956513e+09 1.08956520e+09
 1.08956528e+09 1.08956535e+09 1.08956543e+09 1.08956551e+09
 1.08956558e+09 1.08956566e+09 1.08956574e+09 1.08956581e+09
 1.08956589e+09 1.08956597e+09 1.08956604e+09 1.08956612e+09
 1.08956620e+09 1.08956627e+09 1.08956635e+09 1.08956642e+09
 1.08956650e+09 1.08956658e+09 1.08956665e+09 1.08956673e+09
 1.08956681e+09 1.08956688e+09 1.08956696e+09 1.08956704e+09
 1.08956711e+09 1.08956719e+09 1.08956727e+09 1.08956734e+09
 1.08956742e+09 1.08956749e+09 1.08956757e+09 1.08956765e+09
 1.08956772e+09 1.08956780e+09 1.08956788e+09 1.08956795e+09
 1.08956803e+09 1.08956811e+09 1.08956818e+09 1.08956826e+09
 1.08956834e+09 1.08956841e+09 1.08956849e+09 1.08956856e+09
 1.08956864e+09 1.08956872e+09 1.08956879e+09 1.08956887e+09
 1.08956895e+09 1.08956902e+09 1.08956910e+09 1.08956918e+09
 1.08956925e+09 1.08956933e+09 1.08956941e+09 1.08956948e+09
 1.08956956e+09 1.08956963e+09 1.08956971e+09 1.08956979e+09
 1.08956986e+09 1.08956994e+09 1.08957002e+09 1.08957009e+09
 1.08957017e+09 1.08957025e+09 1.08957032e+09 1.08957040e+09
 1.08957048e+09 1.08957055e+09 1.08957063e+09 1.08957070e+09
 1.08957078e+09 1.08957086e+09 1.08957093e+09 1.08957101e+09
 1.08957109e+09 1.08957116e+09 1.08957124e+09 1.08957132e+09
 1.08957139e+09 1.08957147e+09 1.08957155e+09 1.08957162e+09
 1.08957170e+09 1.08957177e+09 1.08957185e+09 1.08957193e+09
 1.08957200e+09 1.08957208e+09 1.08957216e+09 1.08957223e+09
 1.08957231e+09 1.08957239e+09 1.08957246e+09 1.08957254e+09
 1.08957262e+09 1.08957269e+09 1.08957277e+09 1.08957284e+09
 1.08957292e+09 1.08957300e+09 1.08957307e+09 1.08957315e+09
 1.08957323e+09 1.08957330e+09 1.08957338e+09 1.08957346e+09
 1.08957353e+09 1.08957361e+09 1.08957369e+09 1.08957376e+09
 1.08957384e+09 1.08957391e+09 1.08957399e+09 1.08957407e+09
 1.08957414e+09 1.08957422e+09 1.08957430e+09 1.08957437e+09
 1.08957445e+09 1.08957453e+09 1.08957460e+09 1.08957468e+09
 1.08957475e+09 1.08957483e+09 1.08957491e+09 1.08957498e+09
 1.08957506e+09 1.08957514e+09 1.08957521e+09 1.08957529e+09
 1.08957537e+09 1.08957544e+09 1.08957552e+09 1.08957560e+09
 1.08957567e+09 1.08957575e+09 1.08957582e+09 1.08957590e+09
 1.08957598e+09 1.08957605e+09 1.08957613e+09 1.08957621e+09
 1.08957628e+09 1.08957636e+09 1.08957644e+09 1.08957651e+09
 1.08957659e+09 1.08957667e+09 1.08957674e+09 1.08957682e+09
 1.08957689e+09 1.08957697e+09 1.08957705e+09 1.08957712e+09
 1.08957720e+09 1.08957728e+09 1.08957735e+09 1.08957743e+09
 1.08957751e+09 1.08957758e+09 1.08957766e+09 1.08957774e+09
 1.08957781e+09 1.08957789e+09 1.08957796e+09 1.08957804e+09
 1.08957812e+09 1.08957819e+09 1.08957827e+09 1.08957835e+09
 1.08957842e+09 1.08957850e+09 1.08957858e+09 1.08957865e+09
 1.08957873e+09 1.08957881e+09 1.08957888e+09 1.08957896e+09
 1.08957903e+09 1.08957911e+09 1.08957919e+09 1.08957926e+09
 1.08957934e+09 1.08957942e+09 1.08957949e+09 1.08957957e+09
 1.08957965e+09 1.08957972e+09 1.08957980e+09 1.08957988e+09
 1.08957995e+09 1.08958003e+09 1.08958010e+09 1.08958018e+09
 1.08958026e+09 1.08958033e+09 1.08958041e+09 1.08958049e+09
 1.08958056e+09 1.08958064e+09 1.08958072e+09 1.08958079e+09
 1.08958087e+09 1.08958095e+09 1.08958102e+09 1.08958110e+09
 1.08958117e+09 1.08958125e+09 1.08958133e+09 1.08958140e+09
 1.08958148e+09 1.08958156e+09 1.08958163e+09 1.08958171e+09
 1.08958179e+09 1.08958186e+09 1.08958194e+09 1.08958202e+09
 1.08958209e+09 1.08958217e+09 1.08958224e+09 1.08958232e+09
 1.08958240e+09 1.08958247e+09 1.08958255e+09 1.08958263e+09
 1.08958270e+09 1.08958278e+09 1.08958286e+09 1.08958293e+09
 1.08958301e+09 1.08958309e+09 1.08958316e+09 1.08958324e+09
 1.08958331e+09 1.08958339e+09 1.08958347e+09 1.08958354e+09
 1.08958362e+09 1.08958370e+09 1.08958377e+09 1.08958385e+09
 1.08958393e+09 1.08958400e+09 1.08958408e+09 1.08958416e+09
 1.08958423e+09 1.08958431e+09 1.08958438e+09 1.08958446e+09
 1.08958454e+09 1.08958461e+09 1.08958469e+09 1.08958477e+09
 1.08958484e+09 1.08958492e+09 1.08958500e+09 1.08958507e+09
