name =JUICE_ROI_GAN_4_5_04
flyby = ['2034 JUL 11 19:50:31', '2034 JUL 12 19:50:31']
Observation TW = <SpiceCell dtype = 1, length = 0, size = 3200, card = 12, is_set = 1, adjust = 0, init = 1, base = 93945771474288, data = 93945771474336>
Res(t) = [2.62018849 2.6173414  2.61449891 2.61166103 2.60882776 2.60599912
 2.6031751  2.60035572 2.59754097 2.59473088 2.59192545 2.58912467
 2.58632857 2.58353714 2.58075039 2.57796833 2.57519097 2.57241832
 2.56965037 2.56688714 2.56412864 2.56137486 2.55862583 2.55588153
 2.55314199 2.55040721 2.54767719 2.54495194 2.54223147 2.53951579
 2.53680489 2.5340988  2.53139751 2.52870103 2.52600937 2.52332254
 2.52064054 2.51796338 2.51529106 2.51262359 2.50996099 2.50730325
 2.50465037 2.50200238 2.49935928 2.49672107 2.49408775 2.49145934
 2.48883584 2.48621726 2.48360361 2.48099489 2.4783911  2.47579226
 2.47319837 2.47060944 2.46802547 2.46544648 2.46287246 2.46030342
 2.45773937 2.45518032 2.45262628 2.45007724 2.44753321 2.44499422
 2.44246024 2.43993131 2.43740741 2.43488856 2.43237477 2.42986603
 2.42736236 2.42486377 2.42237025 2.41988182 2.41739848 2.41492024
 2.4124471  2.40997907 2.40751616 2.40505837 2.40260571 2.40015818
 2.39771579 2.39527855 2.39284646 2.39041953 2.38799777 2.38558118
 2.38316976 2.38076353 2.37836248 2.37596663 2.37357598 2.37119054
 2.3688103  2.36643529 2.3640655  2.36170094 2.35934162 2.35698753
 2.3546387  2.35229511 2.34995679 2.34762373 2.34529594 2.34297342
 2.34065619 2.33834424 2.33603758 2.33373623 2.33144017 2.32914943
 2.32686399 2.32458388 2.3223091  2.32003964 2.31777552 2.31551674
 2.31326331 2.31101523 2.30877251 2.30653515 2.30430315 2.30207653
 2.29985529 2.29763944 2.29542897 2.29322389 2.29102421 2.28882994
 2.28664107 2.28445762 2.28227959 2.28010698 2.2779398  2.27577806
 2.27362175 2.27147088 2.26932547 2.2671855  2.265051   2.26292195
 2.26079838 2.25868027 2.25656764 2.25446049 2.25235883 2.25026266
 2.24817198 2.2460868  2.24400713 2.24193296 2.23986431 2.23780117
 2.23574355 2.23369146 2.2316449  2.22960387 2.22756838 2.22553843
 2.22351403 2.22149518 2.21948189 2.21747415 2.21547198 2.21347537
 2.21148433 2.20949887 2.20751899 2.20554469 2.20357597 2.20161285
 2.19965532 2.19770338 2.19575705 2.19381632 2.1918812  2.1899517
 2.1880278  2.18610953 2.18419688 2.18228986 2.18038846 2.1784927
 2.17660257 2.17471809 2.17283924 2.17096605 2.1690985  2.1672366
 2.16538036 2.16352977 2.16168485 2.15984559 2.158012   2.15618408
 2.15436184 2.15254526 2.15073437 2.14892916 2.14712964 2.1453358
 2.14354765 2.14176519 2.13998843 2.13821736 2.136452   2.13469233
 2.13293838 2.13119013 2.12944759 2.12771076 2.12597964 2.12425424
 2.12253456 2.1208206  2.11911237 2.11740985 2.11571307 2.11402201
 2.11233669 2.1106571  2.10898324 2.10731512 2.10565273 2.10399609
 2.10234519 2.10070003 2.09906062 2.09742695 2.09579903 2.09417686
 2.09256044 2.09094978 2.08934486 2.08774571 2.08615231 2.08456466
 2.08298278 2.08140665 2.07983629 2.07827169 2.07671285 2.07515977
 2.07361246 2.07207092 2.07053514 2.06900513 2.06748089 2.06596242
 2.06444972 2.06294279 2.06144162 2.05994623 2.05845662 2.05697277
 2.0554947  2.0540224  2.05255587 2.05109512 2.04964014 2.04819094
 2.04674751 2.04530986 2.04387798 2.04245187 2.04103154 2.03961698
 2.0382082  2.03680519 2.03540796 2.0340165  2.03263081 2.0312509
 2.02987675 2.02850838 2.02714579 2.02578896 2.02443791 2.02309262
 2.0217531  2.02041936 2.01909138 2.01776916 2.01645272 2.01514204
 2.01383712 2.01253797 2.01124458 2.00995695 2.00867508 2.00739897
 2.00612862 2.00486402 2.00360518 2.0023521  2.00110477 1.99986318
 1.99862735 1.99739727 1.99617293 1.99495434 1.99374149 1.99253438
 1.99133302 1.99013739 1.98894749 1.98776334 1.98658491 1.98541221
 1.98424525 1.98308401 1.98192849 1.9807787  1.97963462 1.97849627
 1.97736363 1.9762367  1.97511548 1.97399997 1.97289017 1.97178607
 1.97068767 1.96959497 1.96850796 1.96742665 1.96635102 1.96528109
 1.96421683 1.96315826 1.96210537 1.96105815 1.96001661 1.95898074
 1.95795053 1.95692598 1.9559071  1.95489387 1.95388629 1.95288437
 1.95188809 1.95089746 1.94991246 1.9489331  1.94795938 1.94699128
 1.94602881 1.94507196 1.94412073 1.94317512 1.94223511 1.94130072
 1.94037192 1.93944872 1.93853112 1.93761911 1.93671269 1.93581185
 1.93491659 1.9340269  1.93314278 1.93226423 1.93139124 1.93052381
 1.92966193 1.9288056  1.92795481 1.92710956 1.92626985 1.92543566
 1.924607   1.92378387 1.92296625 1.92215414 1.92134753 1.92054643
 1.91975083 1.91896071 1.91817608 1.91739694 1.91662327 1.91585507
 1.91509234 1.91433507 1.91358326 1.9128369  1.91209598 1.9113605
 1.91063045 1.90990584 1.90918665 1.90847288 1.90776452 1.90706156
 1.90636401 1.90567186 1.90498509 1.90430371 1.9036277  1.90295707
 1.90229181 1.90163191 1.90097736 1.90032816 1.8996843  1.89904578
 1.89841259 1.89778473 1.89716218 1.89654495 1.89593302 1.8953264
 1.89472506 1.89412902 1.89353825 1.89295276 1.89237254 1.89179757
 1.89122787 1.89066341 1.89010419 1.88955021 1.88900146 1.88845793
 1.88791961 1.8873865  1.88685859 1.88633588 1.88581836 1.88530602
 1.88479885 1.88429684 1.8838     1.88330831 1.88282177 1.88234036
 1.88186409 1.88139294 1.88092691 1.88046599 1.88001017 1.87955945
 1.87911382 1.87867327 1.87823779 1.87780737 1.87738202 1.87696171
 1.87654645 1.87613623 1.87573103 1.87533086 1.8749357  1.87454554
 1.87416039 1.87378022 1.87340504 1.87303483 1.87266959 1.8723093
 1.87195397 1.87160358 1.87125813 1.8709176  1.870582   1.87025131
 1.86992552 1.86960462 1.86928861 1.86897749 1.86867123 1.86836984
 1.8680733  1.86778161 1.86749476 1.86721273 1.86693553 1.86666315
 1.86639557 1.86613278 1.86587479 1.86562157 1.86537313 1.86512945
 1.86489053 1.86465635 1.86442691 1.8642022  1.86398221 1.86376693
 1.86355636 1.86335048 1.86314929 1.86295277 1.86276093 1.86257374
 1.86239121 1.86221332 1.86204006 1.86187143 1.86170742 1.86154801
 1.8613932  1.86124299 1.86109735 1.86095628 1.86081978 1.86068784
 1.86056043 1.86043757 1.86031923 1.86020541 1.8600961  1.85999129
 1.85989097 1.85979513 1.85970377 1.85961687 1.85953442 1.85945642
 1.85938286 1.85931372 1.859249   1.85918869 1.85913278 1.85908126
 1.85903412 1.85899135 1.85895295 1.8589189  1.85888919 1.85886381
 1.85884277 1.85882603 1.85881361 1.85880548 1.85880163 1.85880207
 1.85880677 1.85881574 1.85882895 1.8588464  1.85886809 1.85889399
 1.85892411 1.85895843 1.85899694 1.85903964 1.85908651 1.85913754
 1.85919273 1.85925207 1.85931553 1.85938313 1.85945484 1.85953066
 1.85961057 1.85969457 1.85978265 1.8598748  1.85997101 1.86007126
 1.86017556 1.86028388 1.86039623 1.86051258 1.86063293 1.86075728
 1.8608856  1.8610179  1.86115416 1.86129437 1.86143852 1.8615866
 1.86173861 1.86189453 1.86205435 1.86221807 1.86238567 1.86255714
 1.86273248 1.86291167 1.8630947  1.86328157 1.86347227 1.86366678
 1.86386509 1.8640672  1.86427309 1.86448277 1.8646962  1.8649134
 1.86513433 1.86535901 1.86558741 1.86581953 1.86605536 1.86629488
 1.86653809 1.86678498 1.86703553 1.86728975 1.86754761 1.86780911
 1.86807424 1.86834298 1.86861534 1.86889129 1.86917083 1.86945395
 1.86974064 1.87003089 1.87032469 1.87062203 1.8709229  1.87122729
 1.87153519 1.87184659 1.87216148 1.87247985 1.8728017  1.873127
 1.87345576 1.87378795 1.87412358 1.87446263 1.87480509 1.87515096
 1.87550022 1.87585286 1.87620887 1.87656825 1.87693098 1.87729705
 1.87766646 1.87803919 1.87841524 1.87879459 1.87917723 1.87956316
 1.87995237 1.88034484 1.88074057 1.88113954 1.88154175 1.88194719
 1.88235585 1.88276771 1.88318277 1.88360101 1.88402244 1.88444703
 1.88487479 1.88530569 1.88573973 1.8861769  1.8866172  1.8870606
 1.8875071  1.8879567  1.88840938 1.88886513 1.88932394 1.88978581
 1.89025072 1.89071866 1.89118963 1.89166362 1.89214061 1.89262059
 1.89310356 1.89358951 1.89407843 1.8945703  1.89506512 1.89556288
 1.89606357 1.89656718 1.89707371 1.89758313 1.89809544 1.89861064
 1.89912871 1.89964964 1.90017343 1.90070006 1.90122953 1.90176183
 1.90229694 1.90283486 1.90337557 1.90391908 1.90446537 1.90501442
 1.90556624 1.90612081 1.90667812 1.90723817 1.90780094 1.90836642
 1.90893461 1.9095055  1.91007907 1.91065533 1.91123425 1.91181583
 1.91240007 1.91298694 1.91357645 1.91416859 1.91476333 1.91536069
 1.91596064 1.91656318 1.91716829 1.91777598 1.91838623 1.91899903
 1.91961437 1.92023224 1.92085264 1.92147556 1.92210099 1.92272891
 1.92335932 1.92399222 1.92462758 1.92526541 1.92590569 1.92654842
 1.92719359 1.92784118 1.9284912  1.92914362 1.92979845 1.93045566
 1.93111527 1.93177725 1.9324416  1.9331083  1.93377736 1.93444876
 1.93512249 1.93579854 1.93647691 1.93715759 1.93784057 1.93852584
 1.93921339 1.93990321 1.9405953  1.94128964 1.94198624 1.94268507
 1.94338613 1.94408942 1.94479492 1.94550263 1.94621254 1.94692464
 1.94763892 1.94835537 1.94907399 1.94979476 1.95051768 1.95124275
 1.95196994 1.95269926 1.9534307  1.95416425 1.95489989 1.95563763
 1.95637745 1.95711935 1.95786331 1.95860934 1.95935741 1.96010753
 1.96085969 1.96161387 1.96237008 1.96312829 1.96388851 1.96465073
 1.96541494 1.96618113 1.96694929 1.96771941 1.9684915  1.96926553
 1.97004151 1.97081942 1.97159925 1.97238101 1.97316468 1.97395025
 1.97473772 1.97552707 1.97631831 1.97711142 1.9779064  1.97870324
 1.97950192 1.98030246 1.98110482 1.98190902 1.98271504 1.98352287
 1.98433251 1.98514395 1.98595718 1.98677219 1.98758898 1.98840754
 1.98922787 1.99004995 1.99087378 1.99169935 1.99252666 1.99335569
 1.99418644 1.9950189  1.99585307 1.99668894 1.9975265  1.99836575
 1.99920667 2.00004927 2.00089352 2.00173944 2.002587   2.00343621
 2.00428705 2.00513952 2.00599362 2.00684932 2.00770664 2.00856556
 2.00942608 2.01028818 2.01115187 2.01201713 2.01288396 2.01375235
 2.01462229 2.01549379 2.01636682 2.0172414  2.0181175  2.01899512
 2.01987426 2.0207549  2.02163705 2.0225207  2.02340584 2.02429246
 2.02518055 2.02607012 2.02696115 2.02785364 2.02874758 2.02964297
 2.0305398  2.03143806 2.03233774 2.03323885 2.03414137 2.0350453
 2.03595063 2.03685736 2.03776548 2.03867498 2.03958586 2.04049811
 2.04141172 2.0423267  2.04324303 2.04416071 2.04507973 2.04600008
 2.04692177 2.04784478 2.04876911 2.04969475 2.0506217  2.05154995
 2.05247949 2.05341033 2.05434244 2.05527584 2.05621051 2.05714645
 2.05808364 2.0590221  2.0599618  2.06090275 2.06184493 2.06278835
 2.063733   2.06467887 2.06562596 2.06657426 2.06752377 2.06847447
 2.06942638 2.07037947 2.07133375 2.07228921 2.07324584 2.07420364
 2.0751626  2.07612273 2.077084   2.07804643 2.07901    2.0799747
 2.08094054 2.08190751 2.0828756  2.08384481 2.08481513 2.08578655
 2.08675908 2.08773271 2.08870743 2.08968324 2.09066014 2.09163811
 2.09261715 2.09359726 2.09457844 2.09556068 2.09654397 2.09752831
 2.09851369 2.09950011 2.10048757 2.10147606 2.10246558 2.10345612
 2.10444767 2.10544024 2.10643381 2.10742839 2.10842397 2.10942054
 2.1104181  2.11141665 2.11241618 2.11341668 2.11441816 2.1154206
 2.11642401 2.11742838 2.1184337  2.11943998 2.1204472  2.12145536
 2.12246446 2.12347449 2.12448546 2.12549735 2.12651016 2.12752389
 2.12853853 2.12955408 2.13057054 2.1315879  2.13260615 2.1336253
 2.13464534 2.13566626 2.13668807 2.13771075 2.13873431 2.13975873
 2.14078402 2.14181018 2.14283719 2.14386506 2.14489378 2.14592335
 2.14695376 2.14798501 2.1490171  2.15005002 2.15108377 2.15211834
 2.15315374 2.15418996 2.15522699 2.15626483 2.15730348 2.15834294
 2.1593832  2.16042425 2.1614661  2.16250874]
t = [1.08953230e+09 1.08953239e+09 1.08953247e+09 1.08953256e+09
 1.08953265e+09 1.08953273e+09 1.08953282e+09 1.08953291e+09
 1.08953299e+09 1.08953308e+09 1.08953317e+09 1.08953325e+09
 1.08953334e+09 1.08953342e+09 1.08953351e+09 1.08953360e+09
 1.08953368e+09 1.08953377e+09 1.08953386e+09 1.08953394e+09
 1.08953403e+09 1.08953412e+09 1.08953420e+09 1.08953429e+09
 1.08953438e+09 1.08953446e+09 1.08953455e+09 1.08953464e+09
 1.08953472e+09 1.08953481e+09 1.08953489e+09 1.08953498e+09
 1.08953507e+09 1.08953515e+09 1.08953524e+09 1.08953533e+09
 1.08953541e+09 1.08953550e+09 1.08953559e+09 1.08953567e+09
 1.08953576e+09 1.08953585e+09 1.08953593e+09 1.08953602e+09
 1.08953611e+09 1.08953619e+09 1.08953628e+09 1.08953637e+09
 1.08953645e+09 1.08953654e+09 1.08953662e+09 1.08953671e+09
 1.08953680e+09 1.08953688e+09 1.08953697e+09 1.08953706e+09
 1.08953714e+09 1.08953723e+09 1.08953732e+09 1.08953740e+09
 1.08953749e+09 1.08953758e+09 1.08953766e+09 1.08953775e+09
 1.08953784e+09 1.08953792e+09 1.08953801e+09 1.08953809e+09
 1.08953818e+09 1.08953827e+09 1.08953835e+09 1.08953844e+09
 1.08953853e+09 1.08953861e+09 1.08953870e+09 1.08953879e+09
 1.08953887e+09 1.08953896e+09 1.08953905e+09 1.08953913e+09
 1.08953922e+09 1.08953931e+09 1.08953939e+09 1.08953948e+09
 1.08953957e+09 1.08953965e+09 1.08953974e+09 1.08953982e+09
 1.08953991e+09 1.08954000e+09 1.08954008e+09 1.08954017e+09
 1.08954026e+09 1.08954034e+09 1.08954043e+09 1.08954052e+09
 1.08954060e+09 1.08954069e+09 1.08954078e+09 1.08954086e+09
 1.08954095e+09 1.08954104e+09 1.08954112e+09 1.08954121e+09
 1.08954129e+09 1.08954138e+09 1.08954147e+09 1.08954155e+09
 1.08954164e+09 1.08954173e+09 1.08954181e+09 1.08954190e+09
 1.08954199e+09 1.08954207e+09 1.08954216e+09 1.08954225e+09
 1.08954233e+09 1.08954242e+09 1.08954251e+09 1.08954259e+09
 1.08954268e+09 1.08954277e+09 1.08954285e+09 1.08954294e+09
 1.08954302e+09 1.08954311e+09 1.08954320e+09 1.08954328e+09
 1.08954337e+09 1.08954346e+09 1.08954354e+09 1.08954363e+09
 1.08954372e+09 1.08954380e+09 1.08954389e+09 1.08954398e+09
 1.08954406e+09 1.08954415e+09 1.08954424e+09 1.08954432e+09
 1.08954441e+09 1.08954449e+09 1.08954458e+09 1.08954467e+09
 1.08954475e+09 1.08954484e+09 1.08954493e+09 1.08954501e+09
 1.08954510e+09 1.08954519e+09 1.08954527e+09 1.08954536e+09
 1.08954545e+09 1.08954553e+09 1.08954562e+09 1.08954571e+09
 1.08954579e+09 1.08954588e+09 1.08954597e+09 1.08954605e+09
 1.08954614e+09 1.08954622e+09 1.08954631e+09 1.08954640e+09
 1.08954648e+09 1.08954657e+09 1.08954666e+09 1.08954674e+09
 1.08954683e+09 1.08954692e+09 1.08954700e+09 1.08954709e+09
 1.08954718e+09 1.08954726e+09 1.08954735e+09 1.08954744e+09
 1.08954752e+09 1.08954761e+09 1.08954769e+09 1.08954778e+09
 1.08954787e+09 1.08954795e+09 1.08954804e+09 1.08954813e+09
 1.08954821e+09 1.08954830e+09 1.08954839e+09 1.08954847e+09
 1.08954856e+09 1.08954865e+09 1.08954873e+09 1.08954882e+09
 1.08954891e+09 1.08954899e+09 1.08954908e+09 1.08954917e+09
 1.08954925e+09 1.08954934e+09 1.08954942e+09 1.08954951e+09
 1.08954960e+09 1.08954968e+09 1.08954977e+09 1.08954986e+09
 1.08954994e+09 1.08955003e+09 1.08955012e+09 1.08955020e+09
 1.08955029e+09 1.08955038e+09 1.08955046e+09 1.08955055e+09
 1.08955064e+09 1.08955072e+09 1.08955081e+09 1.08955089e+09
 1.08955098e+09 1.08955107e+09 1.08955115e+09 1.08955124e+09
 1.08955133e+09 1.08955141e+09 1.08955150e+09 1.08955159e+09
 1.08955167e+09 1.08955176e+09 1.08955185e+09 1.08955193e+09
 1.08955202e+09 1.08955211e+09 1.08955219e+09 1.08955228e+09
 1.08955237e+09 1.08955245e+09 1.08955254e+09 1.08955262e+09
 1.08955271e+09 1.08955280e+09 1.08955288e+09 1.08955297e+09
 1.08955306e+09 1.08955314e+09 1.08955323e+09 1.08955332e+09
 1.08955340e+09 1.08955349e+09 1.08955358e+09 1.08955366e+09
 1.08955375e+09 1.08955384e+09 1.08955392e+09 1.08955401e+09
 1.08955409e+09 1.08955418e+09 1.08955427e+09 1.08955435e+09
 1.08955444e+09 1.08955453e+09 1.08955461e+09 1.08955470e+09
 1.08955479e+09 1.08955487e+09 1.08955496e+09 1.08955505e+09
 1.08955513e+09 1.08955522e+09 1.08955531e+09 1.08955539e+09
 1.08955548e+09 1.08955557e+09 1.08955565e+09 1.08955574e+09
 1.08955582e+09 1.08955591e+09 1.08955600e+09 1.08955608e+09
 1.08955617e+09 1.08955626e+09 1.08955634e+09 1.08955643e+09
 1.08955652e+09 1.08955660e+09 1.08955669e+09 1.08955678e+09
 1.08955686e+09 1.08955695e+09 1.08955704e+09 1.08955712e+09
 1.08955721e+09 1.08955729e+09 1.08955738e+09 1.08955747e+09
 1.08955755e+09 1.08955764e+09 1.08955773e+09 1.08955781e+09
 1.08955790e+09 1.08955799e+09 1.08955807e+09 1.08955816e+09
 1.08955825e+09 1.08955833e+09 1.08955842e+09 1.08955851e+09
 1.08955859e+09 1.08955868e+09 1.08955877e+09 1.08955885e+09
 1.08955894e+09 1.08955902e+09 1.08955911e+09 1.08955920e+09
 1.08955928e+09 1.08955937e+09 1.08955946e+09 1.08955954e+09
 1.08955963e+09 1.08955972e+09 1.08955980e+09 1.08955989e+09
 1.08955998e+09 1.08956006e+09 1.08956015e+09 1.08956024e+09
 1.08956032e+09 1.08956041e+09 1.08956049e+09 1.08956058e+09
 1.08956067e+09 1.08956075e+09 1.08956084e+09 1.08956093e+09
 1.08956101e+09 1.08956110e+09 1.08956119e+09 1.08956127e+09
 1.08956136e+09 1.08956145e+09 1.08956153e+09 1.08956162e+09
 1.08956171e+09 1.08956179e+09 1.08956188e+09 1.08956197e+09
 1.08956205e+09 1.08956214e+09 1.08956222e+09 1.08956231e+09
 1.08956240e+09 1.08956248e+09 1.08956257e+09 1.08956266e+09
 1.08956274e+09 1.08956283e+09 1.08956292e+09 1.08956300e+09
 1.08956309e+09 1.08956318e+09 1.08956326e+09 1.08956335e+09
 1.08956344e+09 1.08956352e+09 1.08956361e+09 1.08956369e+09
 1.08956378e+09 1.08956387e+09 1.08956395e+09 1.08956404e+09
 1.08956413e+09 1.08956421e+09 1.08956430e+09 1.08956439e+09
 1.08956447e+09 1.08956456e+09 1.08956465e+09 1.08956473e+09
 1.08956482e+09 1.08956491e+09 1.08956499e+09 1.08956508e+09
 1.08956517e+09 1.08956525e+09 1.08956534e+09 1.08956542e+09
 1.08956551e+09 1.08956560e+09 1.08956568e+09 1.08956577e+09
 1.08956586e+09 1.08956594e+09 1.08956603e+09 1.08956612e+09
 1.08956620e+09 1.08956629e+09 1.08956638e+09 1.08956646e+09
 1.08956655e+09 1.08956664e+09 1.08956672e+09 1.08956681e+09
 1.08956689e+09 1.08956698e+09 1.08956707e+09 1.08956715e+09
 1.08956724e+09 1.08956733e+09 1.08956741e+09 1.08956750e+09
 1.08956759e+09 1.08956767e+09 1.08956776e+09 1.08956785e+09
 1.08956793e+09 1.08956802e+09 1.08956811e+09 1.08956819e+09
 1.08956828e+09 1.08956837e+09 1.08956845e+09 1.08956854e+09
 1.08956862e+09 1.08956871e+09 1.08956880e+09 1.08956888e+09
 1.08956897e+09 1.08956906e+09 1.08956914e+09 1.08956923e+09
 1.08956932e+09 1.08956940e+09 1.08956949e+09 1.08956958e+09
 1.08956966e+09 1.08956975e+09 1.08956984e+09 1.08956992e+09
 1.08957001e+09 1.08957009e+09 1.08957018e+09 1.08957027e+09
 1.08957035e+09 1.08957044e+09 1.08957053e+09 1.08957061e+09
 1.08957070e+09 1.08957079e+09 1.08957087e+09 1.08957096e+09
 1.08957105e+09 1.08957113e+09 1.08957122e+09 1.08957131e+09
 1.08957139e+09 1.08957148e+09 1.08957157e+09 1.08957165e+09
 1.08957174e+09 1.08957182e+09 1.08957191e+09 1.08957200e+09
 1.08957208e+09 1.08957217e+09 1.08957226e+09 1.08957234e+09
 1.08957243e+09 1.08957252e+09 1.08957260e+09 1.08957269e+09
 1.08957278e+09 1.08957286e+09 1.08957295e+09 1.08957304e+09
 1.08957312e+09 1.08957321e+09 1.08957329e+09 1.08957338e+09
 1.08957347e+09 1.08957355e+09 1.08957364e+09 1.08957373e+09
 1.08957381e+09 1.08957390e+09 1.08957399e+09 1.08957407e+09
 1.08957416e+09 1.08957425e+09 1.08957433e+09 1.08957442e+09
 1.08957451e+09 1.08957459e+09 1.08957468e+09 1.08957477e+09
 1.08957485e+09 1.08957494e+09 1.08957502e+09 1.08957511e+09
 1.08957520e+09 1.08957528e+09 1.08957537e+09 1.08957546e+09
 1.08957554e+09 1.08957563e+09 1.08957572e+09 1.08957580e+09
 1.08957589e+09 1.08957598e+09 1.08957606e+09 1.08957615e+09
 1.08957624e+09 1.08957632e+09 1.08957641e+09 1.08957649e+09
 1.08957658e+09 1.08957667e+09 1.08957675e+09 1.08957684e+09
 1.08957693e+09 1.08957701e+09 1.08957710e+09 1.08957719e+09
 1.08957727e+09 1.08957736e+09 1.08957745e+09 1.08957753e+09
 1.08957762e+09 1.08957771e+09 1.08957779e+09 1.08957788e+09
 1.08957797e+09 1.08957805e+09 1.08957814e+09 1.08957822e+09
 1.08957831e+09 1.08957840e+09 1.08957848e+09 1.08957857e+09
 1.08957866e+09 1.08957874e+09 1.08957883e+09 1.08957892e+09
 1.08957900e+09 1.08957909e+09 1.08957918e+09 1.08957926e+09
 1.08957935e+09 1.08957944e+09 1.08957952e+09 1.08957961e+09
 1.08957969e+09 1.08957978e+09 1.08957987e+09 1.08957995e+09
 1.08958004e+09 1.08958013e+09 1.08958021e+09 1.08958030e+09
 1.08958039e+09 1.08958047e+09 1.08958056e+09 1.08958065e+09
