name =JUICE_ROI_GAN_6_1_03
flyby = ['2034 SEP 28 18:48:51', '2034 SEP 29 18:48:51']
Observation TW = <SpiceCell dtype = 1, length = 0, size = 3200, card = 12, is_set = 1, adjust = 0, init = 1, base = 94546994984816, data = 94546994984864>
Res(t) = [1.54129009 1.53956432 1.53784174 1.53612233 1.53440611 1.53269307
 1.53098323 1.52927658 1.52757313 1.52587288 1.52417584 1.522482
 1.52079137 1.51910396 1.51741977 1.5157388  1.51406106 1.51238654
 1.51071526 1.50904721 1.5073824  1.50572084 1.50406252 1.50240745
 1.50075563 1.49910708 1.49746178 1.49581974 1.49418098 1.49254548
 1.49091326 1.48928432 1.48765866 1.48603629 1.4844172  1.48280141
 1.48118891 1.47957972 1.47797382 1.47637124 1.47477196 1.473176
 1.47158336 1.46999403 1.46840804 1.46682537 1.46524603 1.46367004
 1.46209738 1.46052806 1.45896209 1.45739947 1.45584021 1.4542843
 1.45273176 1.45118258 1.44963677 1.44809433 1.44655527 1.44501959
 1.44348729 1.44195838 1.44043286 1.43891074 1.43739201 1.43587669
 1.43436477 1.43285626 1.43135117 1.42984949 1.42835123 1.4268564
 1.42536499 1.42387702 1.42239248 1.42091139 1.41943373 1.41795952
 1.41648876 1.41502146 1.41355761 1.41209723 1.41064031 1.40918686
 1.40773688 1.40629038 1.40484736 1.40340782 1.40197177 1.40053921
 1.39911015 1.39768458 1.39626252 1.39484396 1.39342891 1.39201738
 1.39060936 1.38920486 1.38780389 1.38640645 1.38501254 1.38362216
 1.38223532 1.38085203 1.37947228 1.37809608 1.37672344 1.37535435
 1.37398883 1.37262687 1.37126848 1.36991366 1.36856241 1.36721475
 1.36587067 1.36453018 1.36319315 1.36185979 1.36053003 1.35920387
 1.35788131 1.35656236 1.35524702 1.3539353  1.35262719 1.35132271
 1.35002185 1.34872462 1.34743102 1.34614106 1.34485474 1.34357207
 1.34229303 1.34101765 1.33974593 1.33847786 1.33721345 1.3359527
 1.33469562 1.33344221 1.33219248 1.33094642 1.32970404 1.32846535
 1.32723035 1.32599904 1.32477142 1.3235475  1.32232728 1.32111076
 1.31989796 1.31868886 1.31748348 1.31628182 1.31508387 1.31388965
 1.31269916 1.3115124  1.31032938 1.30915009 1.30797454 1.30680273
 1.30563467 1.30447037 1.30330981 1.30215301 1.30099997 1.29985069
 1.29870518 1.29756344 1.29642547 1.29529127 1.29416085 1.29303422
 1.29191136 1.29079229 1.28967702 1.28856553 1.28745785 1.28635396
 1.28525387 1.28415759 1.28306511 1.28197644 1.28089159 1.27981056
 1.27873334 1.27765994 1.27659037 1.27552463 1.27446272 1.27340464
 1.27235039 1.27129998 1.27025342 1.2692107  1.26817182 1.26713679
 1.26610562 1.26507829 1.26405483 1.26303522 1.26201948 1.2610076
 1.25999958 1.25899544 1.25799517 1.25699877 1.25600625 1.2550176
 1.25403284 1.25305196 1.25207497 1.25110186 1.25013265 1.24916733
 1.2482059  1.24724837 1.24629474 1.24534501 1.24439919 1.24345727
 1.24251925 1.24158515 1.24065496 1.23972869 1.23880633 1.23788789
 1.23697336 1.23606276 1.23515609 1.23425334 1.23335451 1.23245962
 1.23156866 1.23068163 1.22979853 1.22891937 1.22804415 1.22717287
 1.22630553 1.22544213 1.22458268 1.22372717 1.22287562 1.22202801
 1.22118435 1.22034464 1.21950889 1.21867709 1.21784925 1.21702536
 1.21620544 1.21538947 1.21457747 1.21376943 1.21296535 1.21216524
 1.21136909 1.21057691 1.2097887  1.20900446 1.20822419 1.20744789
 1.20667556 1.20590721 1.20514283 1.20438243 1.203626   1.20287355
 1.20212507 1.20138058 1.20064006 1.19990352 1.19917096 1.19844239
 1.19771779 1.19699718 1.19628055 1.1955679  1.19485923 1.19415455
 1.19345386 1.19275714 1.19206442 1.19137568 1.19069092 1.19001015
 1.18933336 1.18866056 1.18799175 1.18732692 1.18666608 1.18600922
 1.18535635 1.18470747 1.18406257 1.18342166 1.18278474 1.1821518
 1.18152284 1.18089787 1.18027689 1.17965988 1.17904687 1.17843783
 1.17783278 1.17723171 1.17663463 1.17604152 1.1754524  1.17486726
 1.17428609 1.17370891 1.1731357  1.17256647 1.17200122 1.17143994
 1.17088263 1.17032931 1.16977995 1.16923457 1.16869315 1.16815571
 1.16762223 1.16709272 1.16656718 1.16604561 1.16552799 1.16501434
 1.16450465 1.16399893 1.16349715 1.16299934 1.16250548 1.16201558
 1.16152962 1.16104762 1.16056957 1.16009546 1.1596253  1.15915908
 1.15869681 1.15823847 1.15778408 1.15733362 1.15688709 1.1564445
 1.15600584 1.1555711  1.15514029 1.15471341 1.15429044 1.1538714
 1.15345627 1.15304506 1.15263776 1.15223437 1.15183489 1.15143931
 1.15104764 1.15065987 1.15027599 1.14989601 1.14951992 1.14914772
 1.14877941 1.14841498 1.14805443 1.14769776 1.14734497 1.14699605
 1.146651   1.14630981 1.14597249 1.14563902 1.14530942 1.14498367
 1.14466177 1.14434371 1.1440295  1.14371914 1.1434126  1.14310991
 1.14281104 1.142516   1.14222478 1.14193739 1.14165381 1.14137404
 1.14109808 1.14082592 1.14055757 1.14029302 1.14003225 1.13977528
 1.13952209 1.13927269 1.13902706 1.13878521 1.13854713 1.13831281
 1.13808225 1.13785545 1.1376324  1.13741311 1.13719755 1.13698574
 1.13677766 1.13657331 1.13637269 1.13617579 1.13598261 1.13579314
 1.13560738 1.13542532 1.13524696 1.1350723  1.13490132 1.13473403
 1.13457042 1.13441048 1.13425422 1.13410162 1.13395267 1.13380739
 1.13366575 1.13352776 1.1333934  1.13326268 1.13313559 1.13301213
 1.13289228 1.13277605 1.13266342 1.13255439 1.13244896 1.13234713
 1.13224888 1.13215421 1.13206311 1.13197558 1.13189162 1.13181121
 1.13173436 1.13166105 1.13159129 1.13152505 1.13146235 1.13140317
 1.1313475  1.13129535 1.1312467  1.13120155 1.1311599  1.13112173
 1.13108704 1.13105582 1.13102808 1.13100379 1.13098296 1.13096558
 1.13095164 1.13094114 1.13093407 1.13093043 1.1309302  1.13093338
 1.13093997 1.13094995 1.13096333 1.13098009 1.13100023 1.13102374
 1.13105061 1.13108084 1.13111442 1.13115135 1.13119162 1.13123521
 1.13128213 1.13133236 1.13138591 1.13144276 1.1315029  1.13156633
 1.13163305 1.13170303 1.13177629 1.13185281 1.13193258 1.13201559
 1.13210184 1.13219133 1.13228404 1.13237996 1.1324791  1.13258144
 1.13268697 1.13279569 1.13290759 1.13302266 1.1331409  1.13326229
 1.13338684 1.13351452 1.13364534 1.13377929 1.13391636 1.13405654
 1.13419982 1.1343462  1.13449566 1.13464821 1.13480383 1.13496252
 1.13512426 1.13528906 1.13545689 1.13562776 1.13580166 1.13597857
 1.13615849 1.13634141 1.13652733 1.13671623 1.13690812 1.13710297
 1.13730078 1.13750155 1.13770526 1.13791191 1.13812149 1.13833398
 1.1385494  1.13876771 1.13898893 1.13921303 1.13944001 1.13966986
 1.13990257 1.14013814 1.14037656 1.14061781 1.1408619  1.1411088
 1.14135852 1.14161104 1.14186636 1.14212446 1.14238535 1.142649
 1.14291542 1.14318459 1.14345651 1.14373116 1.14400854 1.14428864
 1.14457145 1.14485696 1.14514517 1.14543606 1.14572962 1.14602586
 1.14632475 1.14662629 1.14693048 1.14723729 1.14754674 1.14785879
 1.14817345 1.14849072 1.14881056 1.14913299 1.149458   1.14978556
 1.15011568 1.15044834 1.15078354 1.15112127 1.15146151 1.15180427
 1.15214952 1.15249727 1.1528475  1.15320021 1.15355538 1.153913
 1.15427308 1.15463559 1.15500053 1.1553679  1.15573767 1.15610985
 1.15648442 1.15686138 1.15724071 1.15762241 1.15800647 1.15839288
 1.15878162 1.1591727  1.1595661  1.15996182 1.16035984 1.16076015
 1.16116275 1.16156763 1.16197477 1.16238418 1.16279583 1.16320973
 1.16362585 1.16404421 1.16446477 1.16488754 1.16531251 1.16573966
 1.16616899 1.16660049 1.16703415 1.16746997 1.16790792 1.16834801
 1.16879022 1.16923454 1.16968097 1.1701295  1.17058012 1.17103281
 1.17148757 1.1719444  1.17240328 1.1728642  1.17332715 1.17379213
 1.17425912 1.17472812 1.17519912 1.1756721  1.17614707 1.176624
 1.1771029  1.17758375 1.17806655 1.17855127 1.17903793 1.1795265
 1.18001698 1.18050936 1.18100363 1.18149977 1.18199779 1.18249768
 1.18299942 1.183503   1.18400842 1.18451567 1.18502473 1.1855356
 1.18604828 1.18656275 1.187079   1.18759702 1.18811681 1.18863835
 1.18916165 1.18968668 1.19021344 1.19074192 1.19127211 1.19180401
 1.1923376  1.19287288 1.19340983 1.19394845 1.19448874 1.19503067
 1.19557424 1.19611945 1.19666628 1.19721473 1.19776478 1.19831643
 1.19886968 1.1994245  1.19998089 1.20053885 1.20109837 1.20165943
 1.20222202 1.20278615 1.2033518  1.20391896 1.20448762 1.20505778
 1.20562942 1.20620254 1.20677713 1.20735318 1.20793068 1.20850963
 1.20909001 1.20967182 1.21025505 1.21083968 1.21142572 1.21201315
 1.21260197 1.21319216 1.21378372 1.21437664 1.21497091 1.21556653
 1.21616348 1.21676175 1.21736134 1.21796225 1.21856445 1.21916795
 1.21977273 1.22037879 1.22098612 1.22159471 1.22220455 1.22281563
 1.22342795 1.2240415  1.22465627 1.22527225 1.22588944 1.22650782
 1.22712739 1.22774813 1.22837005 1.22899314 1.22961738 1.23024276
 1.23086929 1.23149695 1.23212573 1.23275563 1.23338664 1.23401875
 1.23465195 1.23528624 1.2359216  1.23655803 1.23719553 1.23783407
 1.23847367 1.2391143  1.23975596 1.24039865 1.24104235 1.24168706
 1.24233277 1.24297948 1.24362717 1.24427583 1.24492547 1.24557607
 1.24622762 1.24688012 1.24753356 1.24818794 1.24884324 1.24949946
 1.25015659 1.25081462 1.25147355 1.25213336 1.25279406 1.25345563
 1.25411807 1.25478137 1.25544552 1.25611051 1.25677635 1.25744301
 1.2581105  1.2587788  1.25944792 1.26011783 1.26078855 1.26146005
 1.26213233 1.26280538 1.26347921 1.26415379 1.26482913 1.26550521
 1.26618204 1.26685959 1.26753787 1.26821688 1.26889659 1.26957701
 1.27025813 1.27093994 1.27162244 1.27230561 1.27298946 1.27367397
 1.27435914 1.27504496 1.27573143 1.27641854 1.27710628 1.27779465
 1.27848363 1.27917323 1.27986344 1.28055424 1.28124564 1.28193763
 1.2826302  1.28332334 1.28401705 1.28471132 1.28540615 1.28610153
 1.28679745 1.28749391 1.2881909  1.28888841 1.28958644 1.29028499
 1.29098404 1.29168359 1.29238363 1.29308417 1.29378518 1.29448667
 1.29518864 1.29589106 1.29659395 1.29729728 1.29800107 1.29870529
 1.29940995 1.30011504 1.30082055 1.30152648 1.30223282 1.30293956
 1.30364671 1.30435425 1.30506218 1.30577049 1.30647918 1.30718825
 1.30789768 1.30860747 1.30931762 1.31002811 1.31073895 1.31145013
 1.31216165 1.31287349 1.31358566 1.31429814 1.31501094 1.31572404
 1.31643744 1.31715114 1.31786513 1.31857941 1.31929397 1.32000881
 1.32072391 1.32143928 1.32215491 1.3228708  1.32358693 1.32430331
 1.32501993 1.32573679 1.32645387 1.32717118 1.32788872 1.32860646
 1.32932442 1.33004258 1.33076094 1.3314795  1.33219825 1.33291719
 1.33363631 1.3343556  1.33507507 1.33579471 1.33651451 1.33723446
 1.33795457 1.33867483 1.33939524 1.34011578 1.34083646 1.34155727
 1.34227821 1.34299927 1.34372044 1.34444173 1.34516313 1.34588464
 1.34660624 1.34732794 1.34804973 1.34877161 1.34949357 1.35021561
 1.35093773 1.35165992 1.35238217 1.35310448 1.35382686 1.35454929
 1.35527176 1.35599429 1.35671685 1.35743946 1.35816209 1.35888476
 1.35960745 1.36033017 1.36105291 1.36177565 1.36249841 1.36322118
 1.36394395 1.36466672 1.36538948 1.36611224 1.36683498 1.36755771
 1.36828042 1.36900311 1.36972577 1.3704484  1.371171   1.37189356
 1.37261608 1.37333855 1.37406098 1.37478335 1.37550567 1.37622794
 1.37695014 1.37767228 1.37839435 1.37911634 1.37983827 1.38056011
 1.38128187 1.38200355 1.38272514 1.38344664 1.38416805 1.38488936
 1.38561056 1.38633167 1.38705267 1.38777355 1.38849433 1.38921499
 1.38993553 1.39065595 1.39137624 1.39209641 1.39281644 1.39353635
 1.39425611 1.39497574 1.39569522 1.39641456 1.39713375 1.39785279
 1.39857168 1.39929041 1.40000899 1.4007274  1.40144565 1.40216373
 1.40288164 1.40359938 1.40431694 1.40503433 1.40575154 1.40646857
 1.40718541 1.40790206 1.40861853 1.4093348  1.41005088 1.41076676
 1.41148245 1.41219793 1.4129132  1.41362827]
t = [1.09635420e+09 1.09635429e+09 1.09635437e+09 1.09635446e+09
 1.09635455e+09 1.09635463e+09 1.09635472e+09 1.09635481e+09
 1.09635489e+09 1.09635498e+09 1.09635507e+09 1.09635515e+09
 1.09635524e+09 1.09635532e+09 1.09635541e+09 1.09635550e+09
 1.09635558e+09 1.09635567e+09 1.09635576e+09 1.09635584e+09
 1.09635593e+09 1.09635602e+09 1.09635610e+09 1.09635619e+09
 1.09635628e+09 1.09635636e+09 1.09635645e+09 1.09635654e+09
 1.09635662e+09 1.09635671e+09 1.09635679e+09 1.09635688e+09
 1.09635697e+09 1.09635705e+09 1.09635714e+09 1.09635723e+09
 1.09635731e+09 1.09635740e+09 1.09635749e+09 1.09635757e+09
 1.09635766e+09 1.09635775e+09 1.09635783e+09 1.09635792e+09
 1.09635801e+09 1.09635809e+09 1.09635818e+09 1.09635827e+09
 1.09635835e+09 1.09635844e+09 1.09635852e+09 1.09635861e+09
 1.09635870e+09 1.09635878e+09 1.09635887e+09 1.09635896e+09
 1.09635904e+09 1.09635913e+09 1.09635922e+09 1.09635930e+09
 1.09635939e+09 1.09635948e+09 1.09635956e+09 1.09635965e+09
 1.09635974e+09 1.09635982e+09 1.09635991e+09 1.09635999e+09
 1.09636008e+09 1.09636017e+09 1.09636025e+09 1.09636034e+09
 1.09636043e+09 1.09636051e+09 1.09636060e+09 1.09636069e+09
 1.09636077e+09 1.09636086e+09 1.09636095e+09 1.09636103e+09
 1.09636112e+09 1.09636121e+09 1.09636129e+09 1.09636138e+09
 1.09636147e+09 1.09636155e+09 1.09636164e+09 1.09636172e+09
 1.09636181e+09 1.09636190e+09 1.09636198e+09 1.09636207e+09
 1.09636216e+09 1.09636224e+09 1.09636233e+09 1.09636242e+09
 1.09636250e+09 1.09636259e+09 1.09636268e+09 1.09636276e+09
 1.09636285e+09 1.09636294e+09 1.09636302e+09 1.09636311e+09
 1.09636319e+09 1.09636328e+09 1.09636337e+09 1.09636345e+09
 1.09636354e+09 1.09636363e+09 1.09636371e+09 1.09636380e+09
 1.09636389e+09 1.09636397e+09 1.09636406e+09 1.09636415e+09
 1.09636423e+09 1.09636432e+09 1.09636441e+09 1.09636449e+09
 1.09636458e+09 1.09636467e+09 1.09636475e+09 1.09636484e+09
 1.09636492e+09 1.09636501e+09 1.09636510e+09 1.09636518e+09
 1.09636527e+09 1.09636536e+09 1.09636544e+09 1.09636553e+09
 1.09636562e+09 1.09636570e+09 1.09636579e+09 1.09636588e+09
 1.09636596e+09 1.09636605e+09 1.09636614e+09 1.09636622e+09
 1.09636631e+09 1.09636639e+09 1.09636648e+09 1.09636657e+09
 1.09636665e+09 1.09636674e+09 1.09636683e+09 1.09636691e+09
 1.09636700e+09 1.09636709e+09 1.09636717e+09 1.09636726e+09
 1.09636735e+09 1.09636743e+09 1.09636752e+09 1.09636761e+09
 1.09636769e+09 1.09636778e+09 1.09636787e+09 1.09636795e+09
 1.09636804e+09 1.09636812e+09 1.09636821e+09 1.09636830e+09
 1.09636838e+09 1.09636847e+09 1.09636856e+09 1.09636864e+09
 1.09636873e+09 1.09636882e+09 1.09636890e+09 1.09636899e+09
 1.09636908e+09 1.09636916e+09 1.09636925e+09 1.09636934e+09
 1.09636942e+09 1.09636951e+09 1.09636959e+09 1.09636968e+09
 1.09636977e+09 1.09636985e+09 1.09636994e+09 1.09637003e+09
 1.09637011e+09 1.09637020e+09 1.09637029e+09 1.09637037e+09
 1.09637046e+09 1.09637055e+09 1.09637063e+09 1.09637072e+09
 1.09637081e+09 1.09637089e+09 1.09637098e+09 1.09637107e+09
 1.09637115e+09 1.09637124e+09 1.09637132e+09 1.09637141e+09
 1.09637150e+09 1.09637158e+09 1.09637167e+09 1.09637176e+09
 1.09637184e+09 1.09637193e+09 1.09637202e+09 1.09637210e+09
 1.09637219e+09 1.09637228e+09 1.09637236e+09 1.09637245e+09
 1.09637254e+09 1.09637262e+09 1.09637271e+09 1.09637279e+09
 1.09637288e+09 1.09637297e+09 1.09637305e+09 1.09637314e+09
 1.09637323e+09 1.09637331e+09 1.09637340e+09 1.09637349e+09
 1.09637357e+09 1.09637366e+09 1.09637375e+09 1.09637383e+09
 1.09637392e+09 1.09637401e+09 1.09637409e+09 1.09637418e+09
 1.09637427e+09 1.09637435e+09 1.09637444e+09 1.09637452e+09
 1.09637461e+09 1.09637470e+09 1.09637478e+09 1.09637487e+09
 1.09637496e+09 1.09637504e+09 1.09637513e+09 1.09637522e+09
 1.09637530e+09 1.09637539e+09 1.09637548e+09 1.09637556e+09
 1.09637565e+09 1.09637574e+09 1.09637582e+09 1.09637591e+09
 1.09637599e+09 1.09637608e+09 1.09637617e+09 1.09637625e+09
 1.09637634e+09 1.09637643e+09 1.09637651e+09 1.09637660e+09
 1.09637669e+09 1.09637677e+09 1.09637686e+09 1.09637695e+09
 1.09637703e+09 1.09637712e+09 1.09637721e+09 1.09637729e+09
 1.09637738e+09 1.09637747e+09 1.09637755e+09 1.09637764e+09
 1.09637772e+09 1.09637781e+09 1.09637790e+09 1.09637798e+09
 1.09637807e+09 1.09637816e+09 1.09637824e+09 1.09637833e+09
 1.09637842e+09 1.09637850e+09 1.09637859e+09 1.09637868e+09
 1.09637876e+09 1.09637885e+09 1.09637894e+09 1.09637902e+09
 1.09637911e+09 1.09637919e+09 1.09637928e+09 1.09637937e+09
 1.09637945e+09 1.09637954e+09 1.09637963e+09 1.09637971e+09
 1.09637980e+09 1.09637989e+09 1.09637997e+09 1.09638006e+09
 1.09638015e+09 1.09638023e+09 1.09638032e+09 1.09638041e+09
 1.09638049e+09 1.09638058e+09 1.09638067e+09 1.09638075e+09
 1.09638084e+09 1.09638092e+09 1.09638101e+09 1.09638110e+09
 1.09638118e+09 1.09638127e+09 1.09638136e+09 1.09638144e+09
 1.09638153e+09 1.09638162e+09 1.09638170e+09 1.09638179e+09
 1.09638188e+09 1.09638196e+09 1.09638205e+09 1.09638214e+09
 1.09638222e+09 1.09638231e+09 1.09638239e+09 1.09638248e+09
 1.09638257e+09 1.09638265e+09 1.09638274e+09 1.09638283e+09
 1.09638291e+09 1.09638300e+09 1.09638309e+09 1.09638317e+09
 1.09638326e+09 1.09638335e+09 1.09638343e+09 1.09638352e+09
 1.09638361e+09 1.09638369e+09 1.09638378e+09 1.09638387e+09
 1.09638395e+09 1.09638404e+09 1.09638412e+09 1.09638421e+09
 1.09638430e+09 1.09638438e+09 1.09638447e+09 1.09638456e+09
 1.09638464e+09 1.09638473e+09 1.09638482e+09 1.09638490e+09
 1.09638499e+09 1.09638508e+09 1.09638516e+09 1.09638525e+09
 1.09638534e+09 1.09638542e+09 1.09638551e+09 1.09638559e+09
 1.09638568e+09 1.09638577e+09 1.09638585e+09 1.09638594e+09
 1.09638603e+09 1.09638611e+09 1.09638620e+09 1.09638629e+09
 1.09638637e+09 1.09638646e+09 1.09638655e+09 1.09638663e+09
 1.09638672e+09 1.09638681e+09 1.09638689e+09 1.09638698e+09
 1.09638707e+09 1.09638715e+09 1.09638724e+09 1.09638732e+09
 1.09638741e+09 1.09638750e+09 1.09638758e+09 1.09638767e+09
 1.09638776e+09 1.09638784e+09 1.09638793e+09 1.09638802e+09
 1.09638810e+09 1.09638819e+09 1.09638828e+09 1.09638836e+09
 1.09638845e+09 1.09638854e+09 1.09638862e+09 1.09638871e+09
 1.09638879e+09 1.09638888e+09 1.09638897e+09 1.09638905e+09
 1.09638914e+09 1.09638923e+09 1.09638931e+09 1.09638940e+09
 1.09638949e+09 1.09638957e+09 1.09638966e+09 1.09638975e+09
 1.09638983e+09 1.09638992e+09 1.09639001e+09 1.09639009e+09
 1.09639018e+09 1.09639027e+09 1.09639035e+09 1.09639044e+09
 1.09639052e+09 1.09639061e+09 1.09639070e+09 1.09639078e+09
 1.09639087e+09 1.09639096e+09 1.09639104e+09 1.09639113e+09
 1.09639122e+09 1.09639130e+09 1.09639139e+09 1.09639148e+09
 1.09639156e+09 1.09639165e+09 1.09639174e+09 1.09639182e+09
 1.09639191e+09 1.09639199e+09 1.09639208e+09 1.09639217e+09
 1.09639225e+09 1.09639234e+09 1.09639243e+09 1.09639251e+09
 1.09639260e+09 1.09639269e+09 1.09639277e+09 1.09639286e+09
 1.09639295e+09 1.09639303e+09 1.09639312e+09 1.09639321e+09
 1.09639329e+09 1.09639338e+09 1.09639347e+09 1.09639355e+09
 1.09639364e+09 1.09639372e+09 1.09639381e+09 1.09639390e+09
 1.09639398e+09 1.09639407e+09 1.09639416e+09 1.09639424e+09
 1.09639433e+09 1.09639442e+09 1.09639450e+09 1.09639459e+09
 1.09639468e+09 1.09639476e+09 1.09639485e+09 1.09639494e+09
 1.09639502e+09 1.09639511e+09 1.09639519e+09 1.09639528e+09
 1.09639537e+09 1.09639545e+09 1.09639554e+09 1.09639563e+09
 1.09639571e+09 1.09639580e+09 1.09639589e+09 1.09639597e+09
 1.09639606e+09 1.09639615e+09 1.09639623e+09 1.09639632e+09
 1.09639641e+09 1.09639649e+09 1.09639658e+09 1.09639667e+09
 1.09639675e+09 1.09639684e+09 1.09639692e+09 1.09639701e+09
 1.09639710e+09 1.09639718e+09 1.09639727e+09 1.09639736e+09
 1.09639744e+09 1.09639753e+09 1.09639762e+09 1.09639770e+09
 1.09639779e+09 1.09639788e+09 1.09639796e+09 1.09639805e+09
 1.09639814e+09 1.09639822e+09 1.09639831e+09 1.09639839e+09
 1.09639848e+09 1.09639857e+09 1.09639865e+09 1.09639874e+09
 1.09639883e+09 1.09639891e+09 1.09639900e+09 1.09639909e+09
 1.09639917e+09 1.09639926e+09 1.09639935e+09 1.09639943e+09
 1.09639952e+09 1.09639961e+09 1.09639969e+09 1.09639978e+09
 1.09639987e+09 1.09639995e+09 1.09640004e+09 1.09640012e+09
 1.09640021e+09 1.09640030e+09 1.09640038e+09 1.09640047e+09
 1.09640056e+09 1.09640064e+09 1.09640073e+09 1.09640082e+09
 1.09640090e+09 1.09640099e+09 1.09640108e+09 1.09640116e+09
 1.09640125e+09 1.09640134e+09 1.09640142e+09 1.09640151e+09
 1.09640159e+09 1.09640168e+09 1.09640177e+09 1.09640185e+09
 1.09640194e+09 1.09640203e+09 1.09640211e+09 1.09640220e+09
 1.09640229e+09 1.09640237e+09 1.09640246e+09 1.09640255e+09
 1.09640263e+09 1.09640272e+09 1.09640281e+09 1.09640289e+09
