name =JUICE_ROI_GAN_4_2_04
flyby = ['2034 NOV 18 09:58:51', '2034 NOV 19 09:58:51']
Observation TW = <SpiceCell dtype = 1, length = 0, size = 3400, card = 14, is_set = 1, adjust = 0, init = 1, base = 94726014130240, data = 94726014130288>
Res(t) = [1.19107962 1.18928281 1.18748598 1.18568915 1.18389235 1.18209557
 1.18029884 1.17850217 1.17670558 1.17490909 1.1731127  1.17131643
 1.16952031 1.16772433 1.16592853 1.16413291 1.1623375  1.16054229
 1.15874733 1.15695261 1.15515815 1.15336397 1.15157009 1.14977651
 1.14798327 1.14619037 1.14439782 1.14260565 1.14081387 1.1390225
 1.13723155 1.13544104 1.13365098 1.1318614  1.1300723  1.12828371
 1.12649564 1.1247081  1.12292112 1.12113471 1.11934888 1.11756365
 1.11577904 1.11399507 1.11221175 1.1104291  1.10864713 1.10686586
 1.10508531 1.10330549 1.10152643 1.09974813 1.09797062 1.0961939
 1.09441801 1.09264295 1.09086874 1.0890954  1.08732294 1.08555138
 1.08378075 1.08201104 1.08024229 1.07847451 1.07670771 1.07494191
 1.07317713 1.07141339 1.0696507  1.06788908 1.06612854 1.06436911
 1.0626108  1.06085362 1.0590976  1.05734275 1.05558908 1.05383662
 1.05208538 1.05033538 1.04858663 1.04683915 1.04509296 1.04334808
 1.04160452 1.03986229 1.03812142 1.03638192 1.03464381 1.03290711
 1.03117183 1.02943799 1.0277056  1.02597468 1.02424526 1.02251734
 1.02079094 1.01906608 1.01734278 1.01562105 1.0139009  1.01218237
 1.01046545 1.00875017 1.00703655 1.0053246  1.00361433 1.00190577
 1.00019894 0.99849383 0.99679048 0.9950889  0.99338911 0.99169112
 0.98999495 0.98830061 0.98660812 0.9849175  0.98322876 0.98154192
 0.979857   0.97817401 0.97649296 0.97481388 0.97313678 0.97146167
 0.96978857 0.9681175  0.96644848 0.96478151 0.96311661 0.9614538
 0.9597931  0.95813452 0.95647808 0.95482379 0.95317166 0.95152172
 0.94987397 0.94822844 0.94658514 0.94494408 0.94330528 0.94166875
 0.94003452 0.93840258 0.93677297 0.93514569 0.93352076 0.9318982
 0.93027801 0.92866022 0.92704483 0.92543187 0.92382135 0.92221328
 0.92060767 0.91900455 0.91740392 0.9158058  0.91421021 0.91261715
 0.91102665 0.90943871 0.90785336 0.9062706  0.90469045 0.90311292
 0.90153803 0.89996579 0.89839621 0.89682932 0.89526511 0.89370361
 0.89214482 0.89058877 0.88903547 0.88748492 0.88593715 0.88439216
 0.88284997 0.88131059 0.87977403 0.87824031 0.87670945 0.87518144
 0.87365631 0.87213407 0.87061474 0.86909831 0.86758481 0.86607426
 0.86456665 0.863062   0.86156034 0.86006166 0.85856598 0.85707331
 0.85558367 0.85409706 0.8526135  0.851133   0.84965557 0.84818123
 0.84670998 0.84524183 0.84377681 0.84231491 0.84085615 0.83940055
 0.83794811 0.83649884 0.83505275 0.83360987 0.83217019 0.83073373
 0.82930049 0.8278705  0.82644375 0.82502027 0.82360005 0.82218312
 0.82076948 0.81935914 0.81795211 0.81654841 0.81514803 0.813751
 0.81235732 0.81096701 0.80958006 0.8081965  0.80681632 0.80543955
 0.80406619 0.80269624 0.80132973 0.79996665 0.79860702 0.79725085
 0.79589814 0.79454891 0.79320315 0.7918609  0.79052214 0.78918689
 0.78785516 0.78652695 0.78520228 0.78388116 0.78256358 0.78124957
 0.77993912 0.77863225 0.77732896 0.77602927 0.77473318 0.77344069
 0.77215182 0.77086657 0.76958496 0.76830698 0.76703265 0.76576197
 0.76449495 0.7632316  0.76197193 0.76071593 0.75946363 0.75821502
 0.75697012 0.75572892 0.75449145 0.75325769 0.75202767 0.75080138
 0.74957883 0.74836003 0.74714499 0.74593371 0.7447262  0.74352246
 0.7423225  0.74112633 0.73993395 0.73874536 0.73756058 0.73637961
 0.73520246 0.73402912 0.73285961 0.73169393 0.73053208 0.72937408
 0.72821992 0.72706962 0.72592317 0.72478058 0.72364186 0.72250701
 0.72137603 0.72024894 0.71912573 0.71800641 0.71689099 0.71577946
 0.71467184 0.71356812 0.71246832 0.71137243 0.71028046 0.70919241
 0.70810829 0.7070281  0.70595185 0.70487954 0.70381117 0.70274674
 0.70168627 0.70062974 0.69957718 0.69852857 0.69748393 0.69644325
 0.69540654 0.6943738  0.69334504 0.69232026 0.69129946 0.69028264
 0.68926981 0.68826097 0.68725612 0.68625527 0.68525841 0.68426555
 0.68327669 0.68229184 0.681311   0.68033416 0.67936133 0.67839252
 0.67742772 0.67646693 0.67551017 0.67455742 0.6736087  0.672664
 0.67172332 0.67078668 0.66985406 0.66892547 0.66800091 0.66708038
 0.66616388 0.66525143 0.664343   0.66343862 0.66253827 0.66164196
 0.66074969 0.65986146 0.65897727 0.65809712 0.65722102 0.65634896
 0.65548094 0.65461697 0.65375704 0.65290116 0.65204932 0.65120153
 0.65035779 0.64951809 0.64868243 0.64785083 0.64702327 0.64619975
 0.64538028 0.64456486 0.64375348 0.64294615 0.64214286 0.64134362
 0.64054842 0.63975726 0.63897015 0.63818708 0.63740805 0.63663306
 0.63586212 0.63509521 0.63433234 0.63357351 0.63281871 0.63206795
 0.63132123 0.63057854 0.62983988 0.62910525 0.62837465 0.62764808
 0.62692554 0.62620702 0.62549252 0.62478205 0.6240756  0.62337317
 0.62267476 0.62198036 0.62128998 0.62060361 0.61992125 0.6192429
 0.61856855 0.61789822 0.61723188 0.61656954 0.61591121 0.61525687
 0.61460652 0.61396016 0.6133178  0.61267942 0.61204503 0.61141462
 0.61078819 0.61016573 0.60954726 0.60893275 0.60832221 0.60771564
 0.60711304 0.6065144  0.60591971 0.60532898 0.6047422  0.60415938
 0.6035805  0.60300556 0.60243457 0.60186751 0.60130438 0.60074519
 0.60018993 0.59963859 0.59909117 0.59854767 0.59800809 0.59747241
 0.59694065 0.59641279 0.59588883 0.59536876 0.59485259 0.59434031
 0.59383192 0.59332741 0.59282678 0.59233002 0.59183714 0.59134812
 0.59086296 0.59038167 0.58990423 0.58943064 0.5889609  0.58849501
 0.58803295 0.58757473 0.58712034 0.58666977 0.58622303 0.58578011
 0.585341   0.5849057  0.58447421 0.58404651 0.58362262 0.58320251
 0.5827862  0.58237367 0.58196491 0.58155993 0.58115872 0.58076128
 0.58036759 0.57997766 0.57959148 0.57920905 0.57883036 0.5784554
 0.57808418 0.57771668 0.57735291 0.57699285 0.5766365  0.57628386
 0.57593493 0.57558969 0.57524814 0.57491028 0.5745761  0.5742456
 0.57391876 0.5735956  0.5732761  0.57296025 0.57264805 0.5723395
 0.57203459 0.57173331 0.57143566 0.57114164 0.57085124 0.57056445
 0.57028126 0.57000168 0.5697257  0.56945331 0.5691845  0.56891927
 0.56865762 0.56839954 0.56814502 0.56789406 0.56764666 0.5674028
 0.56716248 0.56692569 0.56669244 0.56646271 0.5662365  0.5660138
 0.56579461 0.56557891 0.56536672 0.56515801 0.56495279 0.56475104
 0.56455276 0.56435795 0.56416661 0.56397871 0.56379426 0.56361326
 0.56343569 0.56326155 0.56309083 0.56292353 0.56275965 0.56259917
 0.56244209 0.5622884  0.5621381  0.56199118 0.56184764 0.56170747
 0.56157066 0.56143721 0.56130711 0.56118035 0.56105693 0.56093684
 0.56082008 0.56070664 0.56059652 0.5604897  0.56038618 0.56028595
 0.56018902 0.56009536 0.56000499 0.55991788 0.55983403 0.55975345
 0.55967611 0.55960202 0.55953116 0.55946354 0.55939914 0.55933797
 0.55928    0.55922524 0.55917368 0.55912531 0.55908013 0.55903813
 0.55899931 0.55896365 0.55893116 0.55890182 0.55887562 0.55885257
 0.55883266 0.55881587 0.55880221 0.55879166 0.55878422 0.55877989
 0.55877865 0.5587805  0.55878544 0.55879345 0.55880454 0.55881869
 0.5588359  0.55885616 0.55887946 0.5589058  0.55893518 0.55896758
 0.559003   0.55904143 0.55908287 0.5591273  0.55917473 0.55922515
 0.55927855 0.55933492 0.55939426 0.55945656 0.55952181 0.55959001
 0.55966115 0.55973523 0.55981223 0.55989216 0.559975   0.56006075
 0.5601494  0.56024095 0.56033539 0.56043271 0.5605329  0.56063597
 0.5607419  0.56085069 0.56096233 0.56107681 0.56119413 0.56131428
 0.56143725 0.56156305 0.56169166 0.56182307 0.56195728 0.56209428
 0.56223407 0.56237664 0.56252198 0.5626701  0.56282097 0.56297459
 0.56313097 0.56329008 0.56345193 0.56361651 0.56378382 0.56395383
 0.56412656 0.564302   0.56448013 0.56466095 0.56484445 0.56503064
 0.56521949 0.56541102 0.5656052  0.56580203 0.56600152 0.56620364
 0.5664084  0.56661579 0.5668258  0.56703842 0.56725366 0.5674715
 0.56769193 0.56791496 0.56814057 0.56836877 0.56859953 0.56883287
 0.56906876 0.56930721 0.5695482  0.56979174 0.57003782 0.57028643
 0.57053756 0.57079121 0.57104737 0.57130604 0.57156721 0.57183087
 0.57209702 0.57236566 0.57263677 0.57291035 0.5731864  0.5734649
 0.57374586 0.57402927 0.57431512 0.5746034  0.57489411 0.57518725
 0.5754828  0.57578077 0.57608114 0.57638392 0.57668908 0.57699664
 0.57730658 0.5776189  0.57793359 0.57825065 0.57857007 0.57889185
 0.57921597 0.57954244 0.57987124 0.58020238 0.58053584 0.58087163
 0.58120973 0.58155015 0.58189287 0.58223788 0.5825852  0.5829348
 0.58328668 0.58364084 0.58399728 0.58435598 0.58471694 0.58508016
 0.58544563 0.58581334 0.5861833  0.58655549 0.58692991 0.58730655
 0.58768541 0.58806649 0.58844978 0.58883527 0.58922295 0.58961283
 0.5900049  0.59039915 0.59079558 0.59119419 0.59159496 0.59199789
 0.59240298 0.59281022 0.59321961 0.59363115 0.59404482 0.59446062
 0.59487855 0.59529861 0.59572078 0.59614507 0.59657146 0.59699996
 0.59743055 0.59786325 0.59829803 0.59873489 0.59917383 0.59961485
 0.60005794 0.6005031  0.60095031 0.60139959 0.60185091 0.60230428
 0.6027597  0.60321715 0.60367663 0.60413815 0.60460169 0.60506725
 0.60553482 0.60600441 0.606476   0.60694959 0.60742519 0.60790277
 0.60838235 0.60886391 0.60934745 0.60983297 0.61032046 0.61080992
 0.61130134 0.61179472 0.61229006 0.61278734 0.61328658 0.61378775
 0.61429087 0.61479592 0.6153029  0.61581181 0.61632264 0.61683539
 0.61735006 0.61786663 0.61838511 0.6189055  0.61942778 0.61995196
 0.62047803 0.62100599 0.62153583 0.62206756 0.62260115 0.62313662
 0.62367396 0.62421317 0.62475423 0.62529716 0.62584194 0.62638857
 0.62693704 0.62748736 0.62803952 0.62859351 0.62914934 0.629707
 0.63026648 0.63082779 0.63139091 0.63195586 0.63252261 0.63309117
 0.63366154 0.63423371 0.63480768 0.63538344 0.635961   0.63654035
 0.63712148 0.6377044  0.63828909 0.63887557 0.63946381 0.64005383
 0.64064562 0.64123917 0.64183448 0.64243155 0.64303037 0.64363095
 0.64423327 0.64483735 0.64544316 0.64605072 0.64666002 0.64727105
 0.64788381 0.64849831 0.64911453 0.64973247 0.65035214 0.65097352
 0.65159663 0.65222144 0.65284797 0.6534762  0.65410614 0.65473778
 0.65537113 0.65600617 0.65664291 0.65728134 0.65792146 0.65856327
 0.65920677 0.65985194 0.66049881 0.66114734 0.66179756 0.66244945
 0.66310301 0.66375825 0.66441514 0.66507371 0.66573394 0.66639583
 0.66705938 0.66772458 0.66839144 0.66905995 0.66973012 0.67040193
 0.67107538 0.67175049 0.67242723 0.67310562 0.67378564 0.67446731
 0.6751506  0.67583553 0.6765221  0.67721029 0.67790011 0.67859155
 0.67928462 0.67997931 0.68067563 0.68137356 0.68207311 0.68277428
 0.68347706 0.68418145 0.68488746 0.68559508 0.6863043  0.68701513
 0.68772757 0.68844161 0.68915725 0.6898745  0.69059334 0.69131378
 0.69203582 0.69275946 0.69348469 0.69421151 0.69493993 0.69566993
 0.69640153 0.69713472 0.69786949 0.69860585 0.69934379 0.70008332
 0.70082443 0.70156712 0.7023114  0.70305725 0.70380468 0.7045537
 0.70530428 0.70605645 0.70681019 0.7075655  0.70832239 0.70908085
 0.70984089 0.71060249 0.71136567 0.71213041 0.71289673 0.71366461
 0.71443406 0.71520508 0.71597767 0.71675182 0.71752754 0.71830482
 0.71908366 0.71986407 0.72064605 0.72142959 0.72221469 0.72300135
 0.72378957 0.72457936 0.7253707  0.72616361 0.72695808 0.7277541
 0.72855169 0.72935084 0.73015155 0.73095381 0.73175764 0.73256302
 0.73336997 0.73417847 0.73498853 0.73580015 0.73661333 0.73742807
 0.73824436 0.73906222 0.73988163 0.74070261 0.74152514 0.74234923
 0.74317488 0.74400209 0.74483086 0.74566119]
t = [1.10072880e+09 1.10072889e+09 1.10072897e+09 1.10072906e+09
 1.10072915e+09 1.10072923e+09 1.10072932e+09 1.10072941e+09
 1.10072949e+09 1.10072958e+09 1.10072967e+09 1.10072975e+09
 1.10072984e+09 1.10072992e+09 1.10073001e+09 1.10073010e+09
 1.10073018e+09 1.10073027e+09 1.10073036e+09 1.10073044e+09
 1.10073053e+09 1.10073062e+09 1.10073070e+09 1.10073079e+09
 1.10073088e+09 1.10073096e+09 1.10073105e+09 1.10073114e+09
 1.10073122e+09 1.10073131e+09 1.10073139e+09 1.10073148e+09
 1.10073157e+09 1.10073165e+09 1.10073174e+09 1.10073183e+09
 1.10073191e+09 1.10073200e+09 1.10073209e+09 1.10073217e+09
 1.10073226e+09 1.10073235e+09 1.10073243e+09 1.10073252e+09
 1.10073261e+09 1.10073269e+09 1.10073278e+09 1.10073287e+09
 1.10073295e+09 1.10073304e+09 1.10073312e+09 1.10073321e+09
 1.10073330e+09 1.10073338e+09 1.10073347e+09 1.10073356e+09
 1.10073364e+09 1.10073373e+09 1.10073382e+09 1.10073390e+09
 1.10073399e+09 1.10073408e+09 1.10073416e+09 1.10073425e+09
 1.10073434e+09 1.10073442e+09 1.10073451e+09 1.10073459e+09
 1.10073468e+09 1.10073477e+09 1.10073485e+09 1.10073494e+09
 1.10073503e+09 1.10073511e+09 1.10073520e+09 1.10073529e+09
 1.10073537e+09 1.10073546e+09 1.10073555e+09 1.10073563e+09
 1.10073572e+09 1.10073581e+09 1.10073589e+09 1.10073598e+09
 1.10073607e+09 1.10073615e+09 1.10073624e+09 1.10073632e+09
 1.10073641e+09 1.10073650e+09 1.10073658e+09 1.10073667e+09
 1.10073676e+09 1.10073684e+09 1.10073693e+09 1.10073702e+09
 1.10073710e+09 1.10073719e+09 1.10073728e+09 1.10073736e+09
 1.10073745e+09 1.10073754e+09 1.10073762e+09 1.10073771e+09
 1.10073779e+09 1.10073788e+09 1.10073797e+09 1.10073805e+09
 1.10073814e+09 1.10073823e+09 1.10073831e+09 1.10073840e+09
 1.10073849e+09 1.10073857e+09 1.10073866e+09 1.10073875e+09
 1.10073883e+09 1.10073892e+09 1.10073901e+09 1.10073909e+09
 1.10073918e+09 1.10073927e+09 1.10073935e+09 1.10073944e+09
 1.10073952e+09 1.10073961e+09 1.10073970e+09 1.10073978e+09
 1.10073987e+09 1.10073996e+09 1.10074004e+09 1.10074013e+09
 1.10074022e+09 1.10074030e+09 1.10074039e+09 1.10074048e+09
 1.10074056e+09 1.10074065e+09 1.10074074e+09 1.10074082e+09
 1.10074091e+09 1.10074099e+09 1.10074108e+09 1.10074117e+09
 1.10074125e+09 1.10074134e+09 1.10074143e+09 1.10074151e+09
 1.10074160e+09 1.10074169e+09 1.10074177e+09 1.10074186e+09
 1.10074195e+09 1.10074203e+09 1.10074212e+09 1.10074221e+09
 1.10074229e+09 1.10074238e+09 1.10074247e+09 1.10074255e+09
 1.10074264e+09 1.10074272e+09 1.10074281e+09 1.10074290e+09
 1.10074298e+09 1.10074307e+09 1.10074316e+09 1.10074324e+09
 1.10074333e+09 1.10074342e+09 1.10074350e+09 1.10074359e+09
 1.10074368e+09 1.10074376e+09 1.10074385e+09 1.10074394e+09
 1.10074402e+09 1.10074411e+09 1.10074419e+09 1.10074428e+09
 1.10074437e+09 1.10074445e+09 1.10074454e+09 1.10074463e+09
 1.10074471e+09 1.10074480e+09 1.10074489e+09 1.10074497e+09
 1.10074506e+09 1.10074515e+09 1.10074523e+09 1.10074532e+09
 1.10074541e+09 1.10074549e+09 1.10074558e+09 1.10074567e+09
 1.10074575e+09 1.10074584e+09 1.10074592e+09 1.10074601e+09
 1.10074610e+09 1.10074618e+09 1.10074627e+09 1.10074636e+09
 1.10074644e+09 1.10074653e+09 1.10074662e+09 1.10074670e+09
 1.10074679e+09 1.10074688e+09 1.10074696e+09 1.10074705e+09
 1.10074714e+09 1.10074722e+09 1.10074731e+09 1.10074739e+09
 1.10074748e+09 1.10074757e+09 1.10074765e+09 1.10074774e+09
 1.10074783e+09 1.10074791e+09 1.10074800e+09 1.10074809e+09
 1.10074817e+09 1.10074826e+09 1.10074835e+09 1.10074843e+09
 1.10074852e+09 1.10074861e+09 1.10074869e+09 1.10074878e+09
 1.10074887e+09 1.10074895e+09 1.10074904e+09 1.10074912e+09
 1.10074921e+09 1.10074930e+09 1.10074938e+09 1.10074947e+09
 1.10074956e+09 1.10074964e+09 1.10074973e+09 1.10074982e+09
 1.10074990e+09 1.10074999e+09 1.10075008e+09 1.10075016e+09
 1.10075025e+09 1.10075034e+09 1.10075042e+09 1.10075051e+09
 1.10075059e+09 1.10075068e+09 1.10075077e+09 1.10075085e+09
 1.10075094e+09 1.10075103e+09 1.10075111e+09 1.10075120e+09
 1.10075129e+09 1.10075137e+09 1.10075146e+09 1.10075155e+09
 1.10075163e+09 1.10075172e+09 1.10075181e+09 1.10075189e+09
 1.10075198e+09 1.10075207e+09 1.10075215e+09 1.10075224e+09
 1.10075232e+09 1.10075241e+09 1.10075250e+09 1.10075258e+09
 1.10075267e+09 1.10075276e+09 1.10075284e+09 1.10075293e+09
 1.10075302e+09 1.10075310e+09 1.10075319e+09 1.10075328e+09
 1.10075336e+09 1.10075345e+09 1.10075354e+09 1.10075362e+09
 1.10075371e+09 1.10075379e+09 1.10075388e+09 1.10075397e+09
 1.10075405e+09 1.10075414e+09 1.10075423e+09 1.10075431e+09
 1.10075440e+09 1.10075449e+09 1.10075457e+09 1.10075466e+09
 1.10075475e+09 1.10075483e+09 1.10075492e+09 1.10075501e+09
 1.10075509e+09 1.10075518e+09 1.10075527e+09 1.10075535e+09
 1.10075544e+09 1.10075552e+09 1.10075561e+09 1.10075570e+09
 1.10075578e+09 1.10075587e+09 1.10075596e+09 1.10075604e+09
 1.10075613e+09 1.10075622e+09 1.10075630e+09 1.10075639e+09
 1.10075648e+09 1.10075656e+09 1.10075665e+09 1.10075674e+09
 1.10075682e+09 1.10075691e+09 1.10075699e+09 1.10075708e+09
 1.10075717e+09 1.10075725e+09 1.10075734e+09 1.10075743e+09
 1.10075751e+09 1.10075760e+09 1.10075769e+09 1.10075777e+09
 1.10075786e+09 1.10075795e+09 1.10075803e+09 1.10075812e+09
 1.10075821e+09 1.10075829e+09 1.10075838e+09 1.10075847e+09
 1.10075855e+09 1.10075864e+09 1.10075872e+09 1.10075881e+09
 1.10075890e+09 1.10075898e+09 1.10075907e+09 1.10075916e+09
 1.10075924e+09 1.10075933e+09 1.10075942e+09 1.10075950e+09
 1.10075959e+09 1.10075968e+09 1.10075976e+09 1.10075985e+09
 1.10075994e+09 1.10076002e+09 1.10076011e+09 1.10076019e+09
 1.10076028e+09 1.10076037e+09 1.10076045e+09 1.10076054e+09
 1.10076063e+09 1.10076071e+09 1.10076080e+09 1.10076089e+09
 1.10076097e+09 1.10076106e+09 1.10076115e+09 1.10076123e+09
 1.10076132e+09 1.10076141e+09 1.10076149e+09 1.10076158e+09
 1.10076167e+09 1.10076175e+09 1.10076184e+09 1.10076192e+09
 1.10076201e+09 1.10076210e+09 1.10076218e+09 1.10076227e+09
 1.10076236e+09 1.10076244e+09 1.10076253e+09 1.10076262e+09
 1.10076270e+09 1.10076279e+09 1.10076288e+09 1.10076296e+09
 1.10076305e+09 1.10076314e+09 1.10076322e+09 1.10076331e+09
 1.10076339e+09 1.10076348e+09 1.10076357e+09 1.10076365e+09
 1.10076374e+09 1.10076383e+09 1.10076391e+09 1.10076400e+09
 1.10076409e+09 1.10076417e+09 1.10076426e+09 1.10076435e+09
 1.10076443e+09 1.10076452e+09 1.10076461e+09 1.10076469e+09
 1.10076478e+09 1.10076487e+09 1.10076495e+09 1.10076504e+09
 1.10076512e+09 1.10076521e+09 1.10076530e+09 1.10076538e+09
 1.10076547e+09 1.10076556e+09 1.10076564e+09 1.10076573e+09
 1.10076582e+09 1.10076590e+09 1.10076599e+09 1.10076608e+09
 1.10076616e+09 1.10076625e+09 1.10076634e+09 1.10076642e+09
 1.10076651e+09 1.10076659e+09 1.10076668e+09 1.10076677e+09
 1.10076685e+09 1.10076694e+09 1.10076703e+09 1.10076711e+09
 1.10076720e+09 1.10076729e+09 1.10076737e+09 1.10076746e+09
 1.10076755e+09 1.10076763e+09 1.10076772e+09 1.10076781e+09
 1.10076789e+09 1.10076798e+09 1.10076807e+09 1.10076815e+09
 1.10076824e+09 1.10076832e+09 1.10076841e+09 1.10076850e+09
 1.10076858e+09 1.10076867e+09 1.10076876e+09 1.10076884e+09
 1.10076893e+09 1.10076902e+09 1.10076910e+09 1.10076919e+09
 1.10076928e+09 1.10076936e+09 1.10076945e+09 1.10076954e+09
 1.10076962e+09 1.10076971e+09 1.10076979e+09 1.10076988e+09
 1.10076997e+09 1.10077005e+09 1.10077014e+09 1.10077023e+09
 1.10077031e+09 1.10077040e+09 1.10077049e+09 1.10077057e+09
 1.10077066e+09 1.10077075e+09 1.10077083e+09 1.10077092e+09
 1.10077101e+09 1.10077109e+09 1.10077118e+09 1.10077127e+09
 1.10077135e+09 1.10077144e+09 1.10077152e+09 1.10077161e+09
 1.10077170e+09 1.10077178e+09 1.10077187e+09 1.10077196e+09
 1.10077204e+09 1.10077213e+09 1.10077222e+09 1.10077230e+09
 1.10077239e+09 1.10077248e+09 1.10077256e+09 1.10077265e+09
 1.10077274e+09 1.10077282e+09 1.10077291e+09 1.10077299e+09
 1.10077308e+09 1.10077317e+09 1.10077325e+09 1.10077334e+09
 1.10077343e+09 1.10077351e+09 1.10077360e+09 1.10077369e+09
 1.10077377e+09 1.10077386e+09 1.10077395e+09 1.10077403e+09
 1.10077412e+09 1.10077421e+09 1.10077429e+09 1.10077438e+09
 1.10077447e+09 1.10077455e+09 1.10077464e+09 1.10077472e+09
 1.10077481e+09 1.10077490e+09 1.10077498e+09 1.10077507e+09
 1.10077516e+09 1.10077524e+09 1.10077533e+09 1.10077542e+09
 1.10077550e+09 1.10077559e+09 1.10077568e+09 1.10077576e+09
 1.10077585e+09 1.10077594e+09 1.10077602e+09 1.10077611e+09
 1.10077619e+09 1.10077628e+09 1.10077637e+09 1.10077645e+09
 1.10077654e+09 1.10077663e+09 1.10077671e+09 1.10077680e+09
 1.10077689e+09 1.10077697e+09 1.10077706e+09 1.10077715e+09
 1.10077723e+09 1.10077732e+09 1.10077741e+09 1.10077749e+09
