name =JUICE_ROI_GAN_4_4_04
flyby = ['2034 SEP 07 06:03:51', '2034 SEP 08 06:03:51']
Observation TW = <SpiceCell dtype = 1, length = 0, size = 3400, card = 14, is_set = 1, adjust = 0, init = 1, base = 94198739057216, data = 94198739057264>
Res(t) = [1.01930546 1.01935801 1.01941183 1.01946689 1.01952321 1.01958079
 1.01963962 1.01969969 1.01976102 1.0198236  1.01988743 1.0199525
 1.02001882 1.02008638 1.02015519 1.02022524 1.02029653 1.02036906
 1.02044284 1.02051785 1.0205941  1.02067158 1.0207503  1.02083025
 1.02091144 1.02099386 1.02107751 1.02116239 1.02124849 1.02133583
 1.02142439 1.02151417 1.02160518 1.02169741 1.02179087 1.02188554
 1.02198143 1.02207855 1.02217687 1.02227642 1.02237717 1.02247914
 1.02258233 1.02268672 1.02279232 1.02289913 1.02300715 1.02311638
 1.02322681 1.02333844 1.02345127 1.02356531 1.02368054 1.02379698
 1.02391461 1.02403343 1.02415345 1.02427467 1.02439708 1.02452067
 1.02464546 1.02477143 1.02489859 1.02502694 1.02515647 1.02528719
 1.02541908 1.02555216 1.02568641 1.02582185 1.02595845 1.02609624
 1.02623519 1.02637532 1.02651662 1.02665909 1.02680273 1.02694754
 1.02709351 1.02724064 1.02738894 1.02753839 1.02768901 1.02784079
 1.02799372 1.02814781 1.02830305 1.02845945 1.02861699 1.02877569
 1.02893554 1.02909653 1.02925867 1.02942195 1.02958637 1.02975194
 1.02991865 1.03008649 1.03025547 1.03042559 1.03059684 1.03076922
 1.03094274 1.03111738 1.03129315 1.03147005 1.03164807 1.03182722
 1.03200749 1.03218887 1.03237138 1.03255501 1.03273975 1.0329256
 1.03311257 1.03330065 1.03348984 1.03368014 1.03387154 1.03406405
 1.03425766 1.03445238 1.03464819 1.03484511 1.03504312 1.03524223
 1.03544243 1.03564372 1.03584611 1.03604958 1.03625414 1.03645979
 1.03666652 1.03687434 1.03708323 1.03729321 1.03750426 1.03771639
 1.0379296  1.03814388 1.03835923 1.03857565 1.03879313 1.03901169
 1.03923131 1.03945199 1.03967373 1.03989654 1.0401204  1.04034532
 1.04057129 1.04079832 1.0410264  1.04125552 1.0414857  1.04171692
 1.04194919 1.0421825  1.04241685 1.04265224 1.04288867 1.04312614
 1.04336463 1.04360417 1.04384473 1.04408632 1.04432894 1.04457259
 1.04481726 1.04506295 1.04530966 1.04555739 1.04580614 1.0460559
 1.04630668 1.04655847 1.04681127 1.04706508 1.04731989 1.04757571
 1.04783253 1.04809035 1.04834917 1.04860899 1.0488698  1.04913161
 1.04939441 1.0496582  1.04992298 1.05018874 1.05045549 1.05072322
 1.05099194 1.05126163 1.0515323  1.05180395 1.05207657 1.05235016
 1.05262472 1.05290025 1.05317675 1.05345421 1.05373264 1.05401202
 1.05429237 1.05457367 1.05485592 1.05513913 1.0554233  1.05570841
 1.05599447 1.05628147 1.05656942 1.05685831 1.05714814 1.05743891
 1.05773062 1.05802326 1.05831683 1.05861134 1.05890677 1.05920313
 1.05950041 1.05979862 1.06009775 1.0603978  1.06069877 1.06100065
 1.06130344 1.06160715 1.06191177 1.06221729 1.06252372 1.06283105
 1.06313929 1.06344842 1.06375846 1.06406939 1.06438121 1.06469393
 1.06500753 1.06532203 1.06563741 1.06595367 1.06627082 1.06658885
 1.06690775 1.06722754 1.06754819 1.06786972 1.06819212 1.06851539
 1.06883953 1.06916452 1.06949039 1.06981711 1.07014469 1.07047313
 1.07080242 1.07113257 1.07146356 1.07179541 1.0721281  1.07246163
 1.07279601 1.07313123 1.07346729 1.07380418 1.07414191 1.07448047
 1.07481986 1.07516008 1.07550112 1.075843   1.07618569 1.0765292
 1.07687353 1.07721868 1.07756464 1.07791142 1.078259   1.07860739
 1.07895659 1.0793066  1.0796574  1.08000901 1.08036141 1.08071461
 1.0810686  1.08142339 1.08177896 1.08213532 1.08249247 1.0828504
 1.08320911 1.0835686  1.08392887 1.08428992 1.08465174 1.08501433
 1.08537768 1.08574181 1.0861067  1.08647235 1.08683877 1.08720594
 1.08757387 1.08794255 1.08831199 1.08868218 1.08905311 1.0894248
 1.08979722 1.09017039 1.0905443  1.09091894 1.09129433 1.09167044
 1.09204729 1.09242487 1.09280317 1.0931822  1.09356196 1.09394243
 1.09432363 1.09470554 1.09508816 1.0954715  1.09585555 1.09624031
 1.09662577 1.09701194 1.09739882 1.09778639 1.09817466 1.09856363
 1.09895329 1.09934364 1.09973468 1.10012641 1.10051882 1.10091192
 1.1013057  1.10170016 1.1020953  1.10249111 1.10288759 1.10328475
 1.10368257 1.10408106 1.10448022 1.10488004 1.10528051 1.10568165
 1.10608344 1.10648588 1.10688898 1.10729273 1.10769712 1.10810216
 1.10850785 1.10891417 1.10932113 1.10972873 1.11013697 1.11054584
 1.11095534 1.11136546 1.11177622 1.11218759 1.11259959 1.11301221
 1.11342545 1.11383931 1.11425377 1.11466885 1.11508454 1.11550084
 1.11591774 1.11633524 1.11675335 1.11717205 1.11759135 1.11801125
 1.11843174 1.11885281 1.11927448 1.11969673 1.12011957 1.12054299
 1.12096699 1.12139156 1.12181672 1.12224244 1.12266874 1.12309561
 1.12352304 1.12395104 1.1243796  1.12480872 1.1252384  1.12566864
 1.12609943 1.12653077 1.12696267 1.12739511 1.1278281  1.12826163
 1.1286957  1.12913032 1.12956547 1.13000116 1.13043738 1.13087413
 1.13131141 1.13174922 1.13218755 1.1326264  1.13306578 1.13350567
 1.13394609 1.13438701 1.13482845 1.1352704  1.13571285 1.13615582
 1.13659928 1.13704325 1.13748772 1.13793269 1.13837815 1.1388241
 1.13927055 1.13971748 1.14016491 1.14061281 1.1410612  1.14151008
 1.14195943 1.14240925 1.14285956 1.14331033 1.14376157 1.14421329
 1.14466547 1.14511811 1.14557122 1.14602478 1.14647881 1.14693329
 1.14738822 1.14784361 1.14829945 1.14875573 1.14921246 1.14966963
 1.15012724 1.1505853  1.15104379 1.15150271 1.15196207 1.15242186
 1.15288208 1.15334273 1.1538038  1.1542653  1.15472721 1.15518955
 1.1556523  1.15611546 1.15657904 1.15704303 1.15750743 1.15797223
 1.15843744 1.15890305 1.15936906 1.15983547 1.16030228 1.16076948
 1.16123707 1.16170506 1.16217343 1.16264219 1.16311133 1.16358085
 1.16405076 1.16452104 1.1649917  1.16546273 1.16593413 1.16640591
 1.16687805 1.16735056 1.16782343 1.16829666 1.16877026 1.16924421
 1.16971852 1.17019318 1.1706682  1.17114356 1.17161927 1.17209533
 1.17257174 1.17304848 1.17352556 1.17400299 1.17448075 1.17495884
 1.17543726 1.17591602 1.1763951  1.17687451 1.17735425 1.1778343
 1.17831468 1.17879537 1.17927638 1.17975771 1.18023935 1.18072129
 1.18120355 1.18168611 1.18216898 1.18265215 1.18313562 1.18361939
 1.18410346 1.18458782 1.18507248 1.18555742 1.18604266 1.18652818
 1.18701399 1.18750008 1.18798645 1.1884731  1.18896003 1.18944724
 1.18993472 1.19042247 1.19091049 1.19139878 1.19188733 1.19237615
 1.19286523 1.19335457 1.19384417 1.19433403 1.19482414 1.1953145
 1.19580512 1.19629598 1.19678709 1.19727845 1.19777005 1.19826189
 1.19875397 1.19924629 1.19973884 1.20023163 1.20072465 1.2012179
 1.20171138 1.20220509 1.20269902 1.20319318 1.20368755 1.20418215
 1.20467696 1.20517199 1.20566723 1.20616268 1.20665834 1.20715422
 1.20765029 1.20814658 1.20864306 1.20913975 1.20963663 1.21013372
 1.210631   1.21112847 1.21162613 1.21212399 1.21262203 1.21312026
 1.21361867 1.21411727 1.21461605 1.21511501 1.21561414 1.21611345
 1.21661294 1.21711259 1.21761242 1.21811242 1.21861258 1.21911291
 1.2196134  1.22011406 1.22061487 1.22111584 1.22161697 1.22211826
 1.22261969 1.22312128 1.22362302 1.2241249  1.22462693 1.22512911
 1.22563143 1.22613389 1.22663648 1.22713922 1.22764209 1.2281451
 1.22864823 1.2291515  1.2296549  1.23015842 1.23066207 1.23116585
 1.23166974 1.23217376 1.2326779  1.23318215 1.23368652 1.234191
 1.23469559 1.2352003  1.23570511 1.23621003 1.23671506 1.23722019
 1.23772542 1.23823075 1.23873618 1.23924171 1.23974733 1.24025305
 1.24075886 1.24126476 1.24177075 1.24227683 1.24278299 1.24328924
 1.24379557 1.24430198 1.24480847 1.24531504 1.24582169 1.24632841
 1.2468352  1.24734206 1.247849   1.248356   1.24886307 1.2493702
 1.2498774  1.25038466 1.25089198 1.25139936 1.2519068  1.25241429
 1.25292183 1.25342943 1.25393708 1.25444478 1.25495253 1.25546032
 1.25596816 1.25647605 1.25698397 1.25749193 1.25799994 1.25850798
 1.25901606 1.25952417 1.26003231 1.26054049 1.26104869 1.26155692
 1.26206518 1.26257347 1.26308178 1.26359011 1.26409846 1.26460684
 1.26511523 1.26562363 1.26613205 1.26664049 1.26714894 1.2676574
 1.26816586 1.26867434 1.26918282 1.26969131 1.27019979 1.27070829
 1.27121678 1.27172527 1.27223376 1.27274224 1.27325072 1.2737592
 1.27426766 1.27477612 1.27528457 1.275793   1.27630142 1.27680982
 1.27731821 1.27782658 1.27833494 1.27884327 1.27935158 1.27985986
 1.28036813 1.28087636 1.28138457 1.28189275 1.2824009  1.28290902
 1.28341711 1.28392516 1.28443317 1.28494115 1.2854491  1.285957
 1.28646486 1.28697268 1.28748046 1.28798819 1.28849588 1.28900351
 1.2895111  1.29001864 1.29052613 1.29103357 1.29154095 1.29204828
 1.29255555 1.29306277 1.29356992 1.29407702 1.29458405 1.29509102
 1.29559793 1.29610477 1.29661155 1.29711825 1.29762489 1.29813146
 1.29863796 1.29914438 1.29965073 1.30015701 1.30066321 1.30116933
 1.30167537 1.30218134 1.30268722 1.30319302 1.30369873 1.30420436
 1.30470991 1.30521537 1.30572074 1.30622602 1.30673121 1.3072363
 1.30774131 1.30824622 1.30875103 1.30925575 1.30976037 1.31026489
 1.31076931 1.31127363 1.31177785 1.31228197 1.31278598 1.31328988
 1.31379368 1.31429737 1.31480095 1.31530442 1.31580777 1.31631102
 1.31681415 1.31731717 1.31782007 1.31832286 1.31882552 1.31932807
 1.3198305  1.3203328  1.32083499 1.32133705 1.32183899 1.3223408
 1.32284248 1.32334404 1.32384546 1.32434676 1.32484793 1.32534896
 1.32584987 1.32635063 1.32685127 1.32735176 1.32785212 1.32835235
 1.32885243 1.32935237 1.32985217 1.33035183 1.33085135 1.33135072
 1.33184995 1.33234903 1.33284796 1.33334675 1.33384539 1.33434387
 1.33484221 1.33534039 1.33583842 1.3363363  1.33683402 1.33733158
 1.33782899 1.33832624 1.33882333 1.33932027 1.33981704 1.34031365
 1.34081009 1.34130638 1.3418025  1.34229845 1.34279424 1.34328986
 1.34378531 1.3442806  1.34477571 1.34527065 1.34576542 1.34626002
 1.34675445 1.3472487  1.34774277 1.34823667 1.3487304  1.34922394
 1.34971731 1.35021049 1.3507035  1.35119632 1.35168896 1.35218142
 1.3526737  1.35316579 1.35365769 1.35414941 1.35464094 1.35513229
 1.35562344 1.3561144  1.35660518 1.35709576 1.35758615 1.35807635
 1.35856635 1.35905616 1.35954577 1.36003519 1.36052441 1.36101343
 1.36150226 1.36199088 1.36247931 1.36296753 1.36345555 1.36394337
 1.36443099 1.3649184  1.3654056  1.36589261 1.3663794  1.36686599
 1.36735237 1.36783854 1.36832451 1.36881026 1.3692958  1.36978113
 1.37026625 1.37075116 1.37123585 1.37172033 1.37220459 1.37268864
 1.37317247 1.37365609 1.37413948 1.37462266 1.37510562 1.37558836
 1.37607088 1.37655318 1.37703525 1.3775171  1.37799873 1.37848014
 1.37896132 1.37944228 1.37992301 1.38040351 1.38088379 1.38136384
 1.38184366 1.38232325 1.38280261 1.38328174 1.38376065 1.38423931
 1.38471775 1.38519596 1.38567393 1.38615166 1.38662917 1.38710643
 1.38758346 1.38806026 1.38853682 1.38901314 1.38948922 1.38996506
 1.39044067 1.39091603 1.39139115 1.39186604 1.39234068 1.39281507
 1.39328923 1.39376314 1.39423681 1.39471024 1.39518342 1.39565635
 1.39612904 1.39660148 1.39707367 1.39754562 1.39801732 1.39848877
 1.39895997 1.39943092 1.39990162 1.40037207 1.40084227 1.40131222
 1.40178191 1.40225135 1.40272054 1.40318948 1.40365816 1.40412658
 1.40459476 1.40506267 1.40553033 1.40599773 1.40646488 1.40693177
 1.4073984  1.40786477 1.40833088 1.40879674 1.40926233 1.40972766
 1.41019274 1.41065755 1.4111221  1.41158639 1.41205041 1.41251418
 1.41297768 1.41344091 1.41390389 1.41436659 1.41482904 1.41529121
 1.41575313 1.41621477 1.41667615 1.41713726]
t = [1.09453275e+09 1.09453280e+09 1.09453285e+09 1.09453289e+09
 1.09453294e+09 1.09453299e+09 1.09453304e+09 1.09453308e+09
 1.09453313e+09 1.09453318e+09 1.09453323e+09 1.09453327e+09
 1.09453332e+09 1.09453337e+09 1.09453342e+09 1.09453346e+09
 1.09453351e+09 1.09453356e+09 1.09453361e+09 1.09453365e+09
 1.09453370e+09 1.09453375e+09 1.09453380e+09 1.09453384e+09
 1.09453389e+09 1.09453394e+09 1.09453399e+09 1.09453404e+09
 1.09453408e+09 1.09453413e+09 1.09453418e+09 1.09453423e+09
 1.09453427e+09 1.09453432e+09 1.09453437e+09 1.09453442e+09
 1.09453446e+09 1.09453451e+09 1.09453456e+09 1.09453461e+09
 1.09453465e+09 1.09453470e+09 1.09453475e+09 1.09453480e+09
 1.09453484e+09 1.09453489e+09 1.09453494e+09 1.09453499e+09
 1.09453503e+09 1.09453508e+09 1.09453513e+09 1.09453518e+09
 1.09453523e+09 1.09453527e+09 1.09453532e+09 1.09453537e+09
 1.09453542e+09 1.09453546e+09 1.09453551e+09 1.09453556e+09
 1.09453561e+09 1.09453565e+09 1.09453570e+09 1.09453575e+09
 1.09453580e+09 1.09453584e+09 1.09453589e+09 1.09453594e+09
 1.09453599e+09 1.09453603e+09 1.09453608e+09 1.09453613e+09
 1.09453618e+09 1.09453622e+09 1.09453627e+09 1.09453632e+09
 1.09453637e+09 1.09453642e+09 1.09453646e+09 1.09453651e+09
 1.09453656e+09 1.09453661e+09 1.09453665e+09 1.09453670e+09
 1.09453675e+09 1.09453680e+09 1.09453684e+09 1.09453689e+09
 1.09453694e+09 1.09453699e+09 1.09453703e+09 1.09453708e+09
 1.09453713e+09 1.09453718e+09 1.09453722e+09 1.09453727e+09
 1.09453732e+09 1.09453737e+09 1.09453741e+09 1.09453746e+09
 1.09453751e+09 1.09453756e+09 1.09453761e+09 1.09453765e+09
 1.09453770e+09 1.09453775e+09 1.09453780e+09 1.09453784e+09
 1.09453789e+09 1.09453794e+09 1.09453799e+09 1.09453803e+09
 1.09453808e+09 1.09453813e+09 1.09453818e+09 1.09453822e+09
 1.09453827e+09 1.09453832e+09 1.09453837e+09 1.09453841e+09
 1.09453846e+09 1.09453851e+09 1.09453856e+09 1.09453860e+09
 1.09453865e+09 1.09453870e+09 1.09453875e+09 1.09453880e+09
 1.09453884e+09 1.09453889e+09 1.09453894e+09 1.09453899e+09
 1.09453903e+09 1.09453908e+09 1.09453913e+09 1.09453918e+09
 1.09453922e+09 1.09453927e+09 1.09453932e+09 1.09453937e+09
 1.09453941e+09 1.09453946e+09 1.09453951e+09 1.09453956e+09
 1.09453960e+09 1.09453965e+09 1.09453970e+09 1.09453975e+09
 1.09453979e+09 1.09453984e+09 1.09453989e+09 1.09453994e+09
 1.09453999e+09 1.09454003e+09 1.09454008e+09 1.09454013e+09
 1.09454018e+09 1.09454022e+09 1.09454027e+09 1.09454032e+09
 1.09454037e+09 1.09454041e+09 1.09454046e+09 1.09454051e+09
 1.09454056e+09 1.09454060e+09 1.09454065e+09 1.09454070e+09
 1.09454075e+09 1.09454079e+09 1.09454084e+09 1.09454089e+09
 1.09454094e+09 1.09454098e+09 1.09454103e+09 1.09454108e+09
 1.09454113e+09 1.09454117e+09 1.09454122e+09 1.09454127e+09
 1.09454132e+09 1.09454137e+09 1.09454141e+09 1.09454146e+09
 1.09454151e+09 1.09454156e+09 1.09454160e+09 1.09454165e+09
 1.09454170e+09 1.09454175e+09 1.09454179e+09 1.09454184e+09
 1.09454189e+09 1.09454194e+09 1.09454198e+09 1.09454203e+09
 1.09454208e+09 1.09454213e+09 1.09454217e+09 1.09454222e+09
 1.09454227e+09 1.09454232e+09 1.09454236e+09 1.09454241e+09
 1.09454246e+09 1.09454251e+09 1.09454256e+09 1.09454260e+09
 1.09454265e+09 1.09454270e+09 1.09454275e+09 1.09454279e+09
 1.09454284e+09 1.09454289e+09 1.09454294e+09 1.09454298e+09
 1.09454303e+09 1.09454308e+09 1.09454313e+09 1.09454317e+09
 1.09454322e+09 1.09454327e+09 1.09454332e+09 1.09454336e+09
 1.09454341e+09 1.09454346e+09 1.09454351e+09 1.09454355e+09
 1.09454360e+09 1.09454365e+09 1.09454370e+09 1.09454375e+09
 1.09454379e+09 1.09454384e+09 1.09454389e+09 1.09454394e+09
 1.09454398e+09 1.09454403e+09 1.09454408e+09 1.09454413e+09
 1.09454417e+09 1.09454422e+09 1.09454427e+09 1.09454432e+09
 1.09454436e+09 1.09454441e+09 1.09454446e+09 1.09454451e+09
 1.09454455e+09 1.09454460e+09 1.09454465e+09 1.09454470e+09
 1.09454474e+09 1.09454479e+09 1.09454484e+09 1.09454489e+09
 1.09454494e+09 1.09454498e+09 1.09454503e+09 1.09454508e+09
 1.09454513e+09 1.09454517e+09 1.09454522e+09 1.09454527e+09
 1.09454532e+09 1.09454536e+09 1.09454541e+09 1.09454546e+09
 1.09454551e+09 1.09454555e+09 1.09454560e+09 1.09454565e+09
 1.09454570e+09 1.09454574e+09 1.09454579e+09 1.09454584e+09
 1.09454589e+09 1.09454593e+09 1.09454598e+09 1.09454603e+09
 1.09454608e+09 1.09454613e+09 1.09454617e+09 1.09454622e+09
 1.09454627e+09 1.09454632e+09 1.09454636e+09 1.09454641e+09
 1.09454646e+09 1.09454651e+09 1.09454655e+09 1.09454660e+09
 1.09454665e+09 1.09454670e+09 1.09454674e+09 1.09454679e+09
 1.09454684e+09 1.09454689e+09 1.09454693e+09 1.09454698e+09
 1.09454703e+09 1.09454708e+09 1.09454712e+09 1.09454717e+09
 1.09454722e+09 1.09454727e+09 1.09454732e+09 1.09454736e+09
 1.09454741e+09 1.09454746e+09 1.09454751e+09 1.09454755e+09
 1.09454760e+09 1.09454765e+09 1.09454770e+09 1.09454774e+09
 1.09454779e+09 1.09454784e+09 1.09454789e+09 1.09454793e+09
 1.09454798e+09 1.09454803e+09 1.09454808e+09 1.09454812e+09
 1.09454817e+09 1.09454822e+09 1.09454827e+09 1.09454831e+09
 1.09454836e+09 1.09454841e+09 1.09454846e+09 1.09454850e+09
 1.09454855e+09 1.09454860e+09 1.09454865e+09 1.09454870e+09
 1.09454874e+09 1.09454879e+09 1.09454884e+09 1.09454889e+09
 1.09454893e+09 1.09454898e+09 1.09454903e+09 1.09454908e+09
 1.09454912e+09 1.09454917e+09 1.09454922e+09 1.09454927e+09
 1.09454931e+09 1.09454936e+09 1.09454941e+09 1.09454946e+09
 1.09454950e+09 1.09454955e+09 1.09454960e+09 1.09454965e+09
 1.09454969e+09 1.09454974e+09 1.09454979e+09 1.09454984e+09
 1.09454989e+09 1.09454993e+09 1.09454998e+09 1.09455003e+09
 1.09455008e+09 1.09455012e+09 1.09455017e+09 1.09455022e+09
 1.09455027e+09 1.09455031e+09 1.09455036e+09 1.09455041e+09
 1.09455046e+09 1.09455050e+09 1.09455055e+09 1.09455060e+09
 1.09455065e+09 1.09455069e+09 1.09455074e+09 1.09455079e+09
 1.09455084e+09 1.09455088e+09 1.09455093e+09 1.09455098e+09
 1.09455103e+09 1.09455108e+09 1.09455112e+09 1.09455117e+09
 1.09455122e+09 1.09455127e+09 1.09455131e+09 1.09455136e+09
 1.09455141e+09 1.09455146e+09 1.09455150e+09 1.09455155e+09
 1.09455160e+09 1.09455165e+09 1.09455169e+09 1.09455174e+09
 1.09455179e+09 1.09455184e+09 1.09455188e+09 1.09455193e+09
 1.09455198e+09 1.09455203e+09 1.09455207e+09 1.09455212e+09
 1.09455217e+09 1.09455222e+09 1.09455227e+09 1.09455231e+09
 1.09455236e+09 1.09455241e+09 1.09455246e+09 1.09455250e+09
 1.09455255e+09 1.09455260e+09 1.09455265e+09 1.09455269e+09
 1.09455274e+09 1.09455279e+09 1.09455284e+09 1.09455288e+09
 1.09455293e+09 1.09455298e+09 1.09455303e+09 1.09455307e+09
 1.09455312e+09 1.09455317e+09 1.09455322e+09 1.09455326e+09
 1.09455331e+09 1.09455336e+09 1.09455341e+09 1.09455346e+09
 1.09455350e+09 1.09455355e+09 1.09455360e+09 1.09455365e+09
 1.09455369e+09 1.09455374e+09 1.09455379e+09 1.09455384e+09
 1.09455388e+09 1.09455393e+09 1.09455398e+09 1.09455403e+09
 1.09455407e+09 1.09455412e+09 1.09455417e+09 1.09455422e+09
 1.09455426e+09 1.09455431e+09 1.09455436e+09 1.09455441e+09
 1.09455445e+09 1.09455450e+09 1.09455455e+09 1.09455460e+09
 1.09455465e+09 1.09455469e+09 1.09455474e+09 1.09455479e+09
 1.09455484e+09 1.09455488e+09 1.09455493e+09 1.09455498e+09
 1.09455503e+09 1.09455507e+09 1.09455512e+09 1.09455517e+09
 1.09455522e+09 1.09455526e+09 1.09455531e+09 1.09455536e+09
 1.09455541e+09 1.09455545e+09 1.09455550e+09 1.09455555e+09
 1.09455560e+09 1.09455564e+09 1.09455569e+09 1.09455574e+09
 1.09455579e+09 1.09455584e+09 1.09455588e+09 1.09455593e+09
 1.09455598e+09 1.09455603e+09 1.09455607e+09 1.09455612e+09
 1.09455617e+09 1.09455622e+09 1.09455626e+09 1.09455631e+09
 1.09455636e+09 1.09455641e+09 1.09455645e+09 1.09455650e+09
 1.09455655e+09 1.09455660e+09 1.09455664e+09 1.09455669e+09
 1.09455674e+09 1.09455679e+09 1.09455683e+09 1.09455688e+09
 1.09455693e+09 1.09455698e+09 1.09455702e+09 1.09455707e+09
 1.09455712e+09 1.09455717e+09 1.09455722e+09 1.09455726e+09
 1.09455731e+09 1.09455736e+09 1.09455741e+09 1.09455745e+09
 1.09455750e+09 1.09455755e+09 1.09455760e+09 1.09455764e+09
 1.09455769e+09 1.09455774e+09 1.09455779e+09 1.09455783e+09
 1.09455788e+09 1.09455793e+09 1.09455798e+09 1.09455802e+09
 1.09455807e+09 1.09455812e+09 1.09455817e+09 1.09455821e+09
 1.09455826e+09 1.09455831e+09 1.09455836e+09 1.09455841e+09
 1.09455845e+09 1.09455850e+09 1.09455855e+09 1.09455860e+09
 1.09455864e+09 1.09455869e+09 1.09455874e+09 1.09455879e+09
 1.09455883e+09 1.09455888e+09 1.09455893e+09 1.09455898e+09
 1.09455902e+09 1.09455907e+09 1.09455912e+09 1.09455917e+09
 1.09455921e+09 1.09455926e+09 1.09455931e+09 1.09455936e+09
