name =JUICE_ROI_GAN_4_5_08
flyby = ['2033 NOV 26 18:22:11', '2033 NOV 27 18:22:11']
Observation TW = <SpiceCell dtype = 1, length = 0, size = 2400, card = 4, is_set = 1, adjust = 0, init = 1, base = 93875987229376, data = 93875987229424>
Res(t) = [0.58947158 0.59070614 0.59196102 0.59323555 0.59452911 0.5958411
 0.59717093 0.59851805 0.59988192 0.60126203 0.60265787 0.60406897
 0.60549488 0.60693514 0.60838932 0.60985703 0.61133786 0.61283142
 0.61433735 0.6158553  0.61738492 0.61892587 0.62047783 0.62204051
 0.62361359 0.62519678 0.62678982 0.62839242 0.63000433 0.6316253
 0.63325507 0.63489342 0.6365401  0.63819491 0.63985763 0.64152804
 0.64320595 0.64489116 0.64658347 0.64828271 0.6499887  0.65170127
 0.65342024 0.65514545 0.65687675 0.65861398 0.66035699 0.66210563
 0.66385978 0.66561928 0.66738401 0.66915383 0.67092863 0.67270828
 0.67449265 0.67628165 0.67807514 0.67987303 0.68167521 0.68348157
 0.68529201 0.68710643 0.68892475 0.69074686 0.69257267 0.69440211
 0.69623507 0.69807148 0.69991126 0.70175432 0.70360059 0.70544999
 0.70730245 0.70915789 0.71101625 0.71287746 0.71474145 0.71660815
 0.71847751 0.72034945 0.72222393 0.72410087 0.72598023 0.72786194
 0.72974595 0.7316322  0.73352065 0.73541124 0.73730393 0.73919865
 0.74109538 0.74299404 0.74489462 0.74679704 0.74870129 0.7506073
 0.75251504 0.75442447 0.75633555 0.75824824 0.76016249 0.76207828
 0.76399557 0.76591432 0.76783449 0.76975605 0.77167897 0.77360322
 0.77552875 0.77745555 0.77938358 0.78131281 0.7832432  0.78517474
 0.78710739 0.78904112 0.79097592 0.79291174 0.79484857 0.79678638
 0.79872514 0.80066483 0.80260542 0.8045469  0.80648924 0.80843241
 0.8103764  0.81232117 0.81426672 0.81621302 0.81816005 0.82010778
 0.82205621 0.82400531 0.82595505 0.82790543 0.82985643 0.83180802
 0.83376019 0.83571292 0.83766619 0.83962    0.84157431 0.84352913
 0.84548442 0.84744018 0.84939638 0.85135303 0.85331009 0.85526756
 0.85722542 0.85918367 0.86114228 0.86310124 0.86506054 0.86702016
 0.86898011 0.87094035 0.87290089 0.8748617  0.87682278 0.87878411
 0.88074569 0.88270751 0.88466954 0.88663179 0.88859424 0.89055688
 0.89251971 0.8944827  0.89644586 0.89840917 0.90037263 0.90233622
 0.90429993 0.90626376 0.9082277  0.91019174 0.91215587 0.91412009
 0.91608438 0.91804873 0.92001315 0.92197762 0.92394213 0.92590668
 0.92787127 0.92983587 0.93180049 0.93376512 0.93572975 0.93769438
 0.939659   0.9416236  0.94358818 0.94555274 0.94751725 0.94948173
 0.95144615 0.95341053 0.95537485 0.95733911 0.95930329 0.96126741
 0.96323144 0.96519539 0.96715925 0.96912302 0.97108668 0.97305025
 0.97501371 0.97697705 0.97894028 0.98090338 0.98286636 0.98482921
 0.98679192 0.9887545  0.99071693 0.99267922 0.99464136 0.99660334
 0.99856517 1.00052683 1.00248833 1.00444966 1.00641082 1.00837181
 1.01033262 1.01229324 1.01425368 1.01621393 1.01817399 1.02013386
 1.02209353 1.024053   1.02601227 1.02797133 1.02993018 1.03188882
 1.03384725 1.03580547 1.03776346 1.03972123 1.04167878 1.04363611
 1.04559321 1.04755007 1.0495067  1.0514631  1.05341926 1.05537519
 1.05733087 1.05928631 1.0612415  1.06319645 1.06515114 1.06710559
 1.06905978 1.07101372 1.07296741 1.07492084 1.076874   1.07882691
 1.08077956 1.08273194 1.08468405 1.0866359  1.08858748 1.09053879
 1.09248983 1.0944406  1.09639109 1.09834131 1.10029125 1.10224092
 1.1041903  1.10613941 1.10808824 1.11003678 1.11198505 1.11393302
 1.11588072 1.11782813 1.11977525 1.12172208 1.12366863 1.12561488
 1.12756085 1.12950652 1.1314519  1.133397   1.13534179 1.1372863
 1.13923051 1.14117442 1.14311804 1.14506136 1.14700438 1.14894711
 1.15088954 1.15283167 1.1547735  1.15671503 1.15865626 1.16059719
 1.16253782 1.16447815 1.16641818 1.1683579  1.17029733 1.17223644
 1.17417526 1.17611377 1.17805198 1.17998989 1.18192749 1.18386479
 1.18580178 1.18773847 1.18967486 1.19161094 1.19354671 1.19548218
 1.19741734 1.1993522  1.20128675 1.203221   1.20515494 1.20708858
 1.20902191 1.21095494 1.21288766 1.21482007 1.21675218 1.21868399
 1.22061549 1.22254668 1.22447757 1.22640816 1.22833844 1.23026841
 1.23219809 1.23412745 1.23605652 1.23798528 1.23991373 1.24184188
 1.24376973 1.24569728 1.24762452 1.24955147 1.25147811 1.25340444
 1.25533048 1.25725622 1.25918165 1.26110678 1.26303162 1.26495615
 1.26688039 1.26880432 1.27072796 1.2726513  1.27457434 1.27649708
 1.27841953 1.28034168 1.28226353 1.28418509 1.28610635 1.28802732
 1.28994799 1.29186837 1.29378846 1.29570825 1.29762775 1.29954696
 1.30146588 1.3033845  1.30530284 1.30722089 1.30913864 1.31105611
 1.3129733  1.31489019 1.3168068  1.31872312 1.32063915 1.3225549
 1.32447037 1.32638555 1.32830045 1.33021507 1.3321294  1.33404345
 1.33595723 1.33787072 1.33978393 1.34169687 1.34360953 1.34552191
 1.34743401 1.34934584 1.35125739 1.35316867 1.35507967 1.3569904
 1.35890086 1.36081105 1.36272097 1.36463061 1.36653999 1.3684491
 1.37035794 1.37226651 1.37417482 1.37608286 1.37799064 1.37989816
 1.38180541 1.38371239 1.38561912 1.38752559 1.38943179 1.39133774
 1.39324343 1.39514886 1.39705403 1.39895895 1.40086361 1.40276802
 1.40467218 1.40657608 1.40847973 1.41038313 1.41228628 1.41418919
 1.41609184 1.41799425 1.4198964  1.42179832 1.42369999 1.42560141
 1.4275026  1.42940354 1.43130424 1.43320469 1.43510491 1.43700489
 1.43890464 1.44080415 1.44270342 1.44460245 1.44650125 1.44839982
 1.45029816 1.45219627 1.45409414 1.45599179 1.45788921 1.4597864
 1.46168336 1.4635801  1.46547662 1.46737291 1.46926897 1.47116482
 1.47306045 1.47495585 1.47685104 1.47874601 1.48064076 1.4825353
 1.48442962 1.48632373 1.48821762 1.4901113  1.49200477 1.49389804
 1.49579109 1.49768393 1.49957657 1.501469   1.50336123 1.50525325
 1.50714507 1.50903669 1.5109281  1.51281932 1.51471034 1.51660115
 1.51849178 1.5203822  1.52227243 1.52416247 1.52605231 1.52794197
 1.52983143 1.5317207  1.53360978 1.53549868 1.53738739 1.53927591
 1.54116425 1.5430524  1.54494037 1.54682816 1.54871577 1.5506032
 1.55249045 1.55437753 1.55626442 1.55815115 1.56003769 1.56192407
 1.56381027 1.5656963  1.56758217 1.56946786 1.57135338 1.57323874
 1.57512393 1.57700896 1.57889382 1.58077853 1.58266306 1.58454744
 1.58643166 1.58831572 1.59019963 1.59208338 1.59396697 1.59585041
 1.5977337  1.59961683 1.60149981 1.60338265 1.60526533 1.60714787
 1.60903026 1.6109125  1.61279461 1.61467656 1.61655838 1.61844005
 1.62032159 1.62220298 1.62408424 1.62596536 1.62784635 1.6297272
 1.63160792 1.6334885  1.63536896 1.63724928 1.63912948 1.64100954
 1.64288949 1.6447693  1.64664899 1.64852856 1.650408   1.65228732
 1.65416652 1.65604561 1.65792457 1.65980342 1.66168215 1.66356077
 1.66543927 1.66731767 1.66919595 1.67107411 1.67295218 1.67483013
 1.67670797 1.67858571 1.68046335 1.68234088 1.68421831 1.68609563
 1.68797286 1.68984999 1.69172702 1.69360395 1.69548078 1.69735753
 1.69923417 1.70111073 1.70298719 1.70486357 1.70673985 1.70861605
 1.71049216 1.71236818 1.71424412 1.71611997 1.71799575 1.71987144
 1.72174705 1.72362258 1.72549804 1.72737341 1.72924871 1.73112394
 1.73299909 1.73487417 1.73674918 1.73862412 1.74049899 1.74237379
 1.74424853 1.7461232  1.7479978  1.74987234 1.75174682 1.75362124
 1.7554956  1.7573699  1.75924414 1.76111832 1.76299245 1.76486652
 1.76674054 1.76861451 1.77048843 1.77236229 1.77423611 1.77610988
 1.77798361 1.77985728 1.78173092 1.78360451 1.78547806 1.78735156
 1.78922503 1.79109846 1.79297185 1.7948452  1.79671852 1.79859181
 1.80046506 1.80233828 1.80421147 1.80608463 1.80795776 1.80983086
 1.81170393 1.81357698 1.81545001 1.81732301 1.819196   1.82106896
 1.8229419  1.82481482 1.82668772 1.82856061 1.83043349 1.83230634
 1.83417919 1.83605202 1.83792485 1.83979766 1.84167047 1.84354327
 1.84541606 1.84728884 1.84916163 1.85103441 1.85290718 1.85477996
 1.85665274 1.85852552 1.8603983  1.86227109 1.86414388 1.86601668
 1.86788948 1.86976229 1.87163511 1.87350795 1.87538079 1.87725365
 1.87912652 1.8809994  1.88287231 1.88474523 1.88661816 1.88849112
 1.8903641  1.8922371  1.89411012 1.89598317 1.89785624 1.89972934
 1.90160246 1.90347561 1.9053488  1.90722201 1.90909526 1.91096853
 1.91284185 1.91471519 1.91658858 1.918462   1.92033546 1.92220896
 1.92408249 1.92595608 1.9278297  1.92970337 1.93157708 1.93345084
 1.93532465 1.9371985  1.93907241 1.94094636 1.94282037 1.94469443
 1.94656854 1.94844271 1.95031694 1.95219122 1.95406556 1.95593996
 1.95781442 1.95968894 1.96156353 1.96343818 1.96531289 1.96718767
 1.96906252 1.97093744 1.97281243 1.97468748 1.97656261 1.97843781
 1.98031308 1.98218843 1.98406386 1.98593936 1.98781494 1.9896906
 1.99156635 1.99344217 1.99531807 1.99719406 1.99907014 2.00094629
 2.00282254 2.00469888 2.0065753  2.00845182 2.01032842 2.01220512
 2.01408191 2.0159588  2.01783578 2.01971286 2.02159004 2.02346731
 2.02534469 2.02722217 2.02909975 2.03097743 2.03285522 2.03473312
 2.03661112 2.03848923 2.04036744 2.04224577 2.04412421 2.04600276
 2.04788142 2.0497602  2.0516391  2.05351811 2.05539723 2.05727648
 2.05915585 2.06103533 2.06291494 2.06479468 2.06667453 2.06855451
 2.07043462 2.07231486 2.07419522 2.07607571 2.07795634 2.07983709
 2.08171798 2.083599   2.08548016 2.08736145 2.08924288 2.09112445
 2.09300615 2.094888   2.09676999 2.09865212 2.1005344  2.10241682
 2.10429938 2.10618209 2.10806495 2.10994796 2.11183112 2.11371443
 2.11559789 2.1174815  2.11936527 2.12124919 2.12313327 2.12501751
 2.12690191 2.12878646 2.13067118 2.13255606 2.1344411  2.1363263
 2.13821167 2.14009721 2.14198291 2.14386878 2.14575482 2.14764103
 2.14952741 2.15141396 2.15330069 2.15518759 2.15707466 2.15896192
 2.16084935 2.16273696 2.16462474 2.16651271 2.16840087 2.1702892
 2.17217772 2.17406642 2.17595531 2.17784439 2.17973365 2.1816231
 2.18351275 2.18540258 2.18729261 2.18918283 2.19107325 2.19296386
 2.19485466 2.19674567 2.19863687 2.20052828 2.20241988 2.20431168
 2.20620369 2.20809591 2.20998832 2.21188095 2.21377378 2.21566681
 2.21756006 2.21945352 2.22134719 2.22324107 2.22513516 2.22702947
 2.22892399 2.23081873 2.23271369 2.23460887 2.23650426 2.23839988
 2.24029571 2.24219177 2.24408806 2.24598456 2.2478813  2.24977826
 2.25167544 2.25357286 2.25547051 2.25736838 2.25926649 2.26116484
 2.26306341 2.26496222 2.26686127 2.26876055 2.27066007 2.27255983
 2.27445984 2.27636008 2.27826056 2.28016129 2.28206226 2.28396348
 2.28586494 2.28776665 2.28966861 2.29157081 2.29347327 2.29537598
 2.29727894 2.29918215 2.30108562 2.30298935 2.30489333 2.30679756
 2.30870206 2.31060682 2.31251183 2.31441711 2.31632265 2.31822845
 2.32013452 2.32204085 2.32394745 2.32585432 2.32776146 2.32966886
 2.33157654 2.33348448 2.3353927  2.3373012  2.33920996 2.34111901
 2.34302833 2.34493793 2.3468478  2.34875796 2.35066839 2.35257911
 2.35449011 2.3564014  2.35831296 2.36022482 2.36213696 2.36404939
 2.3659621  2.36787511 2.36978841 2.371702   2.37361588 2.37553005
 2.37744452 2.37935929 2.38127435 2.3831897  2.38510536 2.38702132
 2.38893758 2.39085413 2.39277099 2.39468816 2.39660563 2.3985234
 2.40044148 2.40235987 2.40427857 2.40619757 2.40811689 2.41003652
 2.41195646 2.41387671 2.41579728 2.41771816 2.41963936 2.42156087
 2.42348271 2.42540486 2.42732734 2.42925013 2.43117325 2.43309669
 2.43502045 2.43694454 2.43886896 2.4407937  2.44271877 2.44464417
 2.4465699  2.44849595 2.45042235 2.45234907 2.45427613 2.45620352
 2.45813125 2.46005932 2.46198772 2.46391646 2.46584554 2.46777496
 2.46970473 2.47163483 2.47356528 2.47549608]
t = [1.06996348e+09 1.06996351e+09 1.06996355e+09 1.06996359e+09
 1.06996362e+09 1.06996366e+09 1.06996370e+09 1.06996374e+09
 1.06996377e+09 1.06996381e+09 1.06996385e+09 1.06996388e+09
 1.06996392e+09 1.06996396e+09 1.06996400e+09 1.06996403e+09
 1.06996407e+09 1.06996411e+09 1.06996414e+09 1.06996418e+09
 1.06996422e+09 1.06996426e+09 1.06996429e+09 1.06996433e+09
 1.06996437e+09 1.06996440e+09 1.06996444e+09 1.06996448e+09
 1.06996452e+09 1.06996455e+09 1.06996459e+09 1.06996463e+09
 1.06996466e+09 1.06996470e+09 1.06996474e+09 1.06996478e+09
 1.06996481e+09 1.06996485e+09 1.06996489e+09 1.06996492e+09
 1.06996496e+09 1.06996500e+09 1.06996504e+09 1.06996507e+09
 1.06996511e+09 1.06996515e+09 1.06996518e+09 1.06996522e+09
 1.06996526e+09 1.06996530e+09 1.06996533e+09 1.06996537e+09
 1.06996541e+09 1.06996544e+09 1.06996548e+09 1.06996552e+09
 1.06996556e+09 1.06996559e+09 1.06996563e+09 1.06996567e+09
 1.06996570e+09 1.06996574e+09 1.06996578e+09 1.06996582e+09
 1.06996585e+09 1.06996589e+09 1.06996593e+09 1.06996597e+09
 1.06996600e+09 1.06996604e+09 1.06996608e+09 1.06996611e+09
 1.06996615e+09 1.06996619e+09 1.06996623e+09 1.06996626e+09
 1.06996630e+09 1.06996634e+09 1.06996637e+09 1.06996641e+09
 1.06996645e+09 1.06996649e+09 1.06996652e+09 1.06996656e+09
 1.06996660e+09 1.06996663e+09 1.06996667e+09 1.06996671e+09
 1.06996675e+09 1.06996678e+09 1.06996682e+09 1.06996686e+09
 1.06996689e+09 1.06996693e+09 1.06996697e+09 1.06996701e+09
 1.06996704e+09 1.06996708e+09 1.06996712e+09 1.06996715e+09
 1.06996719e+09 1.06996723e+09 1.06996727e+09 1.06996730e+09
 1.06996734e+09 1.06996738e+09 1.06996741e+09 1.06996745e+09
 1.06996749e+09 1.06996753e+09 1.06996756e+09 1.06996760e+09
 1.06996764e+09 1.06996767e+09 1.06996771e+09 1.06996775e+09
 1.06996779e+09 1.06996782e+09 1.06996786e+09 1.06996790e+09
 1.06996793e+09 1.06996797e+09 1.06996801e+09 1.06996805e+09
 1.06996808e+09 1.06996812e+09 1.06996816e+09 1.06996819e+09
 1.06996823e+09 1.06996827e+09 1.06996831e+09 1.06996834e+09
 1.06996838e+09 1.06996842e+09 1.06996845e+09 1.06996849e+09
 1.06996853e+09 1.06996857e+09 1.06996860e+09 1.06996864e+09
 1.06996868e+09 1.06996872e+09 1.06996875e+09 1.06996879e+09
 1.06996883e+09 1.06996886e+09 1.06996890e+09 1.06996894e+09
 1.06996898e+09 1.06996901e+09 1.06996905e+09 1.06996909e+09
 1.06996912e+09 1.06996916e+09 1.06996920e+09 1.06996924e+09
 1.06996927e+09 1.06996931e+09 1.06996935e+09 1.06996938e+09
 1.06996942e+09 1.06996946e+09 1.06996950e+09 1.06996953e+09
 1.06996957e+09 1.06996961e+09 1.06996964e+09 1.06996968e+09
 1.06996972e+09 1.06996976e+09 1.06996979e+09 1.06996983e+09
 1.06996987e+09 1.06996990e+09 1.06996994e+09 1.06996998e+09
 1.06997002e+09 1.06997005e+09 1.06997009e+09 1.06997013e+09
 1.06997016e+09 1.06997020e+09 1.06997024e+09 1.06997028e+09
 1.06997031e+09 1.06997035e+09 1.06997039e+09 1.06997042e+09
 1.06997046e+09 1.06997050e+09 1.06997054e+09 1.06997057e+09
 1.06997061e+09 1.06997065e+09 1.06997068e+09 1.06997072e+09
 1.06997076e+09 1.06997080e+09 1.06997083e+09 1.06997087e+09
 1.06997091e+09 1.06997094e+09 1.06997098e+09 1.06997102e+09
 1.06997106e+09 1.06997109e+09 1.06997113e+09 1.06997117e+09
 1.06997120e+09 1.06997124e+09 1.06997128e+09 1.06997132e+09
 1.06997135e+09 1.06997139e+09 1.06997143e+09 1.06997147e+09
 1.06997150e+09 1.06997154e+09 1.06997158e+09 1.06997161e+09
 1.06997165e+09 1.06997169e+09 1.06997173e+09 1.06997176e+09
 1.06997180e+09 1.06997184e+09 1.06997187e+09 1.06997191e+09
 1.06997195e+09 1.06997199e+09 1.06997202e+09 1.06997206e+09
 1.06997210e+09 1.06997213e+09 1.06997217e+09 1.06997221e+09
 1.06997225e+09 1.06997228e+09 1.06997232e+09 1.06997236e+09
 1.06997239e+09 1.06997243e+09 1.06997247e+09 1.06997251e+09
 1.06997254e+09 1.06997258e+09 1.06997262e+09 1.06997265e+09
 1.06997269e+09 1.06997273e+09 1.06997277e+09 1.06997280e+09
 1.06997284e+09 1.06997288e+09 1.06997291e+09 1.06997295e+09
 1.06997299e+09 1.06997303e+09 1.06997306e+09 1.06997310e+09
 1.06997314e+09 1.06997317e+09 1.06997321e+09 1.06997325e+09
 1.06997329e+09 1.06997332e+09 1.06997336e+09 1.06997340e+09
 1.06997343e+09 1.06997347e+09 1.06997351e+09 1.06997355e+09
 1.06997358e+09 1.06997362e+09 1.06997366e+09 1.06997369e+09
 1.06997373e+09 1.06997377e+09 1.06997381e+09 1.06997384e+09
 1.06997388e+09 1.06997392e+09 1.06997395e+09 1.06997399e+09
 1.06997403e+09 1.06997407e+09 1.06997410e+09 1.06997414e+09
 1.06997418e+09 1.06997422e+09 1.06997425e+09 1.06997429e+09
 1.06997433e+09 1.06997436e+09 1.06997440e+09 1.06997444e+09
 1.06997448e+09 1.06997451e+09 1.06997455e+09 1.06997459e+09
 1.06997462e+09 1.06997466e+09 1.06997470e+09 1.06997474e+09
 1.06997477e+09 1.06997481e+09 1.06997485e+09 1.06997488e+09
 1.06997492e+09 1.06997496e+09 1.06997500e+09 1.06997503e+09
 1.06997507e+09 1.06997511e+09 1.06997514e+09 1.06997518e+09
 1.06997522e+09 1.06997526e+09 1.06997529e+09 1.06997533e+09
 1.06997537e+09 1.06997540e+09 1.06997544e+09 1.06997548e+09
 1.06997552e+09 1.06997555e+09 1.06997559e+09 1.06997563e+09
 1.06997566e+09 1.06997570e+09 1.06997574e+09 1.06997578e+09
 1.06997581e+09 1.06997585e+09 1.06997589e+09 1.06997592e+09
 1.06997596e+09 1.06997600e+09 1.06997604e+09 1.06997607e+09
 1.06997611e+09 1.06997615e+09 1.06997618e+09 1.06997622e+09
 1.06997626e+09 1.06997630e+09 1.06997633e+09 1.06997637e+09
 1.06997641e+09 1.06997644e+09 1.06997648e+09 1.06997652e+09
 1.06997656e+09 1.06997659e+09 1.06997663e+09 1.06997667e+09
 1.06997670e+09 1.06997674e+09 1.06997678e+09 1.06997682e+09
 1.06997685e+09 1.06997689e+09 1.06997693e+09 1.06997697e+09
 1.06997700e+09 1.06997704e+09 1.06997708e+09 1.06997711e+09
 1.06997715e+09 1.06997719e+09 1.06997723e+09 1.06997726e+09
 1.06997730e+09 1.06997734e+09 1.06997737e+09 1.06997741e+09
 1.06997745e+09 1.06997749e+09 1.06997752e+09 1.06997756e+09
 1.06997760e+09 1.06997763e+09 1.06997767e+09 1.06997771e+09
 1.06997775e+09 1.06997778e+09 1.06997782e+09 1.06997786e+09
 1.06997789e+09 1.06997793e+09 1.06997797e+09 1.06997801e+09
 1.06997804e+09 1.06997808e+09 1.06997812e+09 1.06997815e+09
 1.06997819e+09 1.06997823e+09 1.06997827e+09 1.06997830e+09
 1.06997834e+09 1.06997838e+09 1.06997841e+09 1.06997845e+09
 1.06997849e+09 1.06997853e+09 1.06997856e+09 1.06997860e+09
 1.06997864e+09 1.06997867e+09 1.06997871e+09 1.06997875e+09
 1.06997879e+09 1.06997882e+09 1.06997886e+09 1.06997890e+09
 1.06997893e+09 1.06997897e+09 1.06997901e+09 1.06997905e+09
 1.06997908e+09 1.06997912e+09 1.06997916e+09 1.06997919e+09
 1.06997923e+09 1.06997927e+09 1.06997931e+09 1.06997934e+09
 1.06997938e+09 1.06997942e+09 1.06997945e+09 1.06997949e+09
 1.06997953e+09 1.06997957e+09 1.06997960e+09 1.06997964e+09
 1.06997968e+09 1.06997972e+09 1.06997975e+09 1.06997979e+09
 1.06997983e+09 1.06997986e+09 1.06997990e+09 1.06997994e+09
 1.06997998e+09 1.06998001e+09 1.06998005e+09 1.06998009e+09
 1.06998012e+09 1.06998016e+09 1.06998020e+09 1.06998024e+09
 1.06998027e+09 1.06998031e+09 1.06998035e+09 1.06998038e+09
 1.06998042e+09 1.06998046e+09 1.06998050e+09 1.06998053e+09
 1.06998057e+09 1.06998061e+09 1.06998064e+09 1.06998068e+09
 1.06998072e+09 1.06998076e+09 1.06998079e+09 1.06998083e+09
 1.06998087e+09 1.06998090e+09 1.06998094e+09 1.06998098e+09
 1.06998102e+09 1.06998105e+09 1.06998109e+09 1.06998113e+09
 1.06998116e+09 1.06998120e+09 1.06998124e+09 1.06998128e+09
 1.06998131e+09 1.06998135e+09 1.06998139e+09 1.06998142e+09
 1.06998146e+09 1.06998150e+09 1.06998154e+09 1.06998157e+09
 1.06998161e+09 1.06998165e+09 1.06998168e+09 1.06998172e+09
 1.06998176e+09 1.06998180e+09 1.06998183e+09 1.06998187e+09
 1.06998191e+09 1.06998194e+09 1.06998198e+09 1.06998202e+09
 1.06998206e+09 1.06998209e+09 1.06998213e+09 1.06998217e+09
 1.06998220e+09 1.06998224e+09 1.06998228e+09 1.06998232e+09
 1.06998235e+09 1.06998239e+09 1.06998243e+09 1.06998247e+09
 1.06998250e+09 1.06998254e+09 1.06998258e+09 1.06998261e+09
 1.06998265e+09 1.06998269e+09 1.06998273e+09 1.06998276e+09
 1.06998280e+09 1.06998284e+09 1.06998287e+09 1.06998291e+09
 1.06998295e+09 1.06998299e+09 1.06998302e+09 1.06998306e+09
 1.06998310e+09 1.06998313e+09 1.06998317e+09 1.06998321e+09
 1.06998325e+09 1.06998328e+09 1.06998332e+09 1.06998336e+09
 1.06998339e+09 1.06998343e+09 1.06998347e+09 1.06998351e+09
 1.06998354e+09 1.06998358e+09 1.06998362e+09 1.06998365e+09
 1.06998369e+09 1.06998373e+09 1.06998377e+09 1.06998380e+09
 1.06998384e+09 1.06998388e+09 1.06998391e+09 1.06998395e+09
 1.06998399e+09 1.06998403e+09 1.06998406e+09 1.06998410e+09
 1.06998414e+09 1.06998417e+09 1.06998421e+09 1.06998425e+09
