name =JUICE_ROI_GAN_6_1_02
flyby = ['2034 JUL 11 19:50:31', '2034 JUL 12 19:50:31']
Observation TW = <SpiceCell dtype = 1, length = 0, size = 3400, card = 14, is_set = 1, adjust = 0, init = 1, base = 94025687156240, data = 94025687156288>
Res(t) = [1.84252833 1.84261703 1.84270735 1.8427993  1.84289287 1.84298805
 1.84308485 1.84318327 1.8432833  1.84338494 1.84348819 1.84359306
 1.84369953 1.8438076  1.84391728 1.84402857 1.84414145 1.84425594
 1.84437203 1.84448971 1.84460898 1.84472985 1.84485232 1.84497637
 1.84510202 1.84522925 1.84535806 1.84548847 1.84562045 1.84575402
 1.84588916 1.84602588 1.84616418 1.84630406 1.84644551 1.84658852
 1.84673311 1.84687927 1.84702699 1.84717628 1.84732713 1.84747955
 1.84763352 1.84778905 1.84794614 1.84810478 1.84826498 1.84842673
 1.84859002 1.84875487 1.84892126 1.8490892  1.84925868 1.8494297
 1.84960226 1.84977636 1.84995199 1.85012916 1.85030786 1.85048809
 1.85066985 1.85085314 1.85103795 1.85122429 1.85141214 1.85160152
 1.85179242 1.85198483 1.85217876 1.8523742  1.85257116 1.85276962
 1.85296959 1.85317106 1.85337404 1.85357852 1.8537845  1.85399198
 1.85420095 1.85441143 1.85462339 1.85483684 1.85505178 1.85526821
 1.85548613 1.85570553 1.85592641 1.85614877 1.8563726  1.85659792
 1.8568247  1.85705296 1.85728269 1.85751389 1.85774655 1.85798068
 1.85821627 1.85845332 1.85869183 1.85893179 1.85917321 1.85941609
 1.85966041 1.85990618 1.8601534  1.86040206 1.86065217 1.86090372
 1.8611567  1.86141113 1.86166698 1.86192427 1.86218299 1.86244314
 1.86270472 1.86296772 1.86323214 1.86349799 1.86376525 1.86403393
 1.86430403 1.86457553 1.86484845 1.86512278 1.86539851 1.86567564
 1.86595418 1.86623412 1.86651546 1.86679819 1.86708232 1.86736783
 1.86765474 1.86794304 1.86823272 1.86852378 1.86881623 1.86911005
 1.86940525 1.86970183 1.86999978 1.8702991  1.87059979 1.87090184
 1.87120526 1.87151004 1.87181618 1.87212368 1.87243253 1.87274274
 1.8730543  1.8733672  1.87368146 1.87399706 1.874314   1.87463228
 1.8749519  1.87527286 1.87559514 1.87591877 1.87624372 1.87656999
 1.87689759 1.87722652 1.87755676 1.87788833 1.8782212  1.8785554
 1.8788909  1.87922771 1.87956583 1.87990526 1.88024598 1.88058801
 1.88093134 1.88127596 1.88162187 1.88196907 1.88231757 1.88266735
 1.88301841 1.88337076 1.88372438 1.88407928 1.88443546 1.88479291
 1.88515163 1.88551162 1.88587288 1.88623539 1.88659917 1.88696421
 1.8873305  1.88769805 1.88806685 1.8884369  1.88880819 1.88918073
 1.88955452 1.88992954 1.8903058  1.8906833  1.89106202 1.89144198
 1.89182317 1.89220558 1.89258922 1.89297407 1.89336015 1.89374744
 1.89413594 1.89452566 1.89491659 1.89530872 1.89570205 1.89609659
 1.89649233 1.89688926 1.89728739 1.89768671 1.89808722 1.89848892
 1.8988918  1.89929586 1.89970111 1.90010753 1.90051512 1.90092389
 1.90133383 1.90174494 1.90215721 1.90257064 1.90298524 1.90340099
 1.9038179  1.90423596 1.90465517 1.90507552 1.90549703 1.90591967
 1.90634346 1.90676838 1.90719444 1.90762164 1.90804996 1.90847941
 1.90890998 1.90934168 1.9097745  1.91020844 1.91064349 1.91107966
 1.91151693 1.91195531 1.9123948  1.91283539 1.91327708 1.91371987
 1.91416376 1.91460873 1.9150548  1.91550195 1.91595019 1.91639951
 1.91684991 1.91730139 1.91775394 1.91820756 1.91866226 1.91911802
 1.91957484 1.92003273 1.92049167 1.92095168 1.92141273 1.92187484
 1.922338   1.9228022  1.92326745 1.92373374 1.92420106 1.92466943
 1.92513882 1.92560925 1.9260807  1.92655318 1.92702669 1.92750121
 1.92797675 1.92845331 1.92893088 1.92940946 1.92988904 1.93036963
 1.93085123 1.93133382 1.93181741 1.93230199 1.93278757 1.93327413
 1.93376168 1.93425021 1.93473973 1.93523022 1.93572169 1.93621413
 1.93670754 1.93720192 1.93769727 1.93819357 1.93869084 1.93918906
 1.93968824 1.94018837 1.94068945 1.94119148 1.94169445 1.94219836
 1.94270321 1.94320899 1.94371571 1.94422336 1.94473194 1.94524144
 1.94575187 1.94626321 1.94677547 1.94728865 1.94780274 1.94831773
 1.94883364 1.94935044 1.94986815 1.95038676 1.95090626 1.95142665
 1.95194794 1.95247011 1.95299317 1.95351711 1.95404193 1.95456763
 1.9550942  1.95562164 1.95614995 1.95667913 1.95720916 1.95774007
 1.95827182 1.95880444 1.9593379  1.95987222 1.96040738 1.96094339
 1.96148024 1.96201793 1.96255645 1.96309581 1.96363599 1.96417701
 1.96471885 1.96526152 1.965805   1.9663493  1.96689442 1.96744035
 1.96798708 1.96853462 1.96908297 1.96963212 1.97018206 1.9707328
 1.97128434 1.97183666 1.97238977 1.97294367 1.97349834 1.9740538
 1.97461003 1.97516704 1.97572481 1.97628336 1.97684267 1.97740274
 1.97796357 1.97852516 1.97908751 1.9796506  1.98021445 1.98077904
 1.98134437 1.98191045 1.98247726 1.98304481 1.98361309 1.9841821
 1.98475184 1.9853223  1.98589348 1.98646539 1.98703801 1.98761134
 1.98818538 1.98876013 1.98933559 1.98991174 1.9904886  1.99106616
 1.99164441 1.99222335 1.99280298 1.99338329 1.99396429 1.99454597
 1.99512833 1.99571136 1.99629506 1.99687943 1.99746447 1.99805018
 1.99863654 1.99922357 1.99981125 2.00039958 2.00098857 2.0015782
 2.00216847 2.00275939 2.00335095 2.00394314 2.00453597 2.00512943
 2.00572352 2.00631823 2.00691357 2.00750953 2.0081061  2.00870329
 2.00930109 2.0098995  2.01049852 2.01109814 2.01169836 2.01229918
 2.0129006  2.01350261 2.01410521 2.0147084  2.01531217 2.01591652
 2.01652145 2.01712696 2.01773305 2.0183397  2.01894692 2.01955471
 2.02016306 2.02077198 2.02138145 2.02199147 2.02260205 2.02321317
 2.02382484 2.02443706 2.02504982 2.02566311 2.02627694 2.02689131
 2.0275062  2.02812163 2.02873757 2.02935404 2.02997103 2.03058854
 2.03120656 2.03182509 2.03244413 2.03306367 2.03368372 2.03430427
 2.03492532 2.03554686 2.0361689  2.03679142 2.03741444 2.03803793
 2.03866191 2.03928637 2.0399113  2.04053671 2.04116259 2.04178893
 2.04241574 2.04304302 2.04367075 2.04429894 2.04492759 2.04555669
 2.04618624 2.04681623 2.04744667 2.04807755 2.04870887 2.04934063
 2.04997282 2.05060544 2.05123849 2.05187196 2.05250586 2.05314017
 2.05377491 2.05441005 2.05504561 2.05568158 2.05631796 2.05695474
 2.05759192 2.0582295  2.05886748 2.05950585 2.06014461 2.06078376
 2.0614233  2.06206322 2.06270352 2.06334419 2.06398525 2.06462667
 2.06526847 2.06591063 2.06655315 2.06719604 2.06783929 2.06848289
 2.06912685 2.06977116 2.07041582 2.07106082 2.07170617 2.07235186
 2.07299789 2.07364425 2.07429095 2.07493797 2.07558533 2.07623301
 2.07688101 2.07752934 2.07817798 2.07882693 2.0794762  2.08012578
 2.08077567 2.08142586 2.08207635 2.08272714 2.08337823 2.08402962
 2.08468129 2.08533326 2.08598551 2.08663805 2.08729086 2.08794396
 2.08859733 2.08925098 2.0899049  2.09055908 2.09121354 2.09186826
 2.09252323 2.09317847 2.09383396 2.09448971 2.09514571 2.09580195
 2.09645845 2.09711518 2.09777216 2.09842937 2.09908683 2.09974451
 2.10040243 2.10106057 2.10171894 2.10237753 2.10303635 2.10369538
 2.10435463 2.10501409 2.10567376 2.10633364 2.10699373 2.10765402
 2.10831451 2.1089752  2.10963609 2.11029717 2.11095844 2.1116199
 2.11228154 2.11294337 2.11360538 2.11426757 2.11492994 2.11559247
 2.11625518 2.11691806 2.11758111 2.11824432 2.11890769 2.11957122
 2.12023491 2.12089875 2.12156275 2.12222689 2.12289118 2.12355561
 2.12422019 2.12488491 2.12554976 2.12621475 2.12687988 2.12754513
 2.12821051 2.12887601 2.12954164 2.13020739 2.13087326 2.13153924
 2.13220534 2.13287155 2.13353787 2.13420429 2.13487082 2.13553745
 2.13620418 2.136871   2.13753792 2.13820494 2.13887204 2.13953923
 2.1402065  2.14087386 2.1415413  2.14220882 2.14287641 2.14354408
 2.14421181 2.14487962 2.1455475  2.14621543 2.14688343 2.14755149
 2.14821961 2.14888778 2.14955601 2.15022428 2.15089261 2.15156098
 2.15222939 2.15289784 2.15356634 2.15423487 2.15490343 2.15557203
 2.15624066 2.15690931 2.157578   2.1582467  2.15891543 2.15958417
 2.16025293 2.16092171 2.16159049 2.16225929 2.16292809 2.16359691
 2.16426572 2.16493453 2.16560335 2.16627216 2.16694096 2.16760976
 2.16827854 2.16894732 2.16961608 2.17028482 2.17095354 2.17162225
 2.17229093 2.17295958 2.17362821 2.17429681 2.17496537 2.17563391
 2.1763024  2.17697086 2.17763928 2.17830765 2.17897598 2.17964426
 2.1803125  2.18098068 2.18164881 2.18231688 2.1829849  2.18365286
 2.18432075 2.18498858 2.18565635 2.18632405 2.18699167 2.18765923
 2.18832671 2.18899411 2.18966144 2.19032868 2.19099585 2.19166292
 2.19232992 2.19299682 2.19366363 2.19433035 2.19499697 2.1956635
 2.19632993 2.19699625 2.19766248 2.19832859 2.1989946  2.19966051
 2.2003263  2.20099197 2.20165753 2.20232298 2.2029883  2.20365351
 2.20431859 2.20498354 2.20564837 2.20631307 2.20697764 2.20764207
 2.20830637 2.20897053 2.20963455 2.21029844 2.21096217 2.21162577
 2.21228921 2.21295251 2.21361566 2.21427865 2.21494149 2.21560417
 2.2162667  2.21692906 2.21759126 2.2182533  2.21891517 2.21957687
 2.2202384  2.22089976 2.22156095 2.22222196 2.22288279 2.22354344
 2.22420391 2.2248642  2.22552431 2.22618422 2.22684395 2.22750348
 2.22816283 2.22882198 2.22948093 2.23013969 2.23079824 2.23145659
 2.23211474 2.23277269 2.23343042 2.23408795 2.23474527 2.23540237
 2.23605926 2.23671594 2.23737239 2.23802862 2.23868464 2.23934043
 2.23999599 2.24065133 2.24130644 2.24196132 2.24261596 2.24327037
 2.24392455 2.24457849 2.24523218 2.24588564 2.24653886 2.24719183
 2.24784455 2.24849702 2.24914925 2.24980122 2.25045294 2.25110441
 2.25175562 2.25240657 2.25305726 2.25370769 2.25435786 2.25500776
 2.25565739 2.25630675 2.25695585 2.25760467 2.25825322 2.2589015
 2.2595495  2.26019721 2.26084465 2.26149181 2.26213869 2.26278527
 2.26343158 2.26407759 2.26472332 2.26536875 2.26601389 2.26665873
 2.26730328 2.26794753 2.26859148 2.26923513 2.26987848 2.27052152
 2.27116426 2.27180669 2.27244881 2.27309062 2.27373212 2.2743733
 2.27501417 2.27565472 2.27629496 2.27693487 2.27757446 2.27821373
 2.27885268 2.27949129 2.28012959 2.28076755 2.28140518 2.28204248
 2.28267944 2.28331608 2.28395237 2.28458833 2.28522394 2.28585922
 2.28649415 2.28712874 2.28776298 2.28839688 2.28903043 2.28966363
 2.29029647 2.29092897 2.29156111 2.29219289 2.29282432 2.29345539
 2.29408609 2.29471644 2.29534643 2.29597605 2.2966053  2.29723419
 2.29786271 2.29849086 2.29911864 2.29974604 2.30037307 2.30099973
 2.30162601 2.30225191 2.30287744 2.30350258 2.30412734 2.30475171
 2.3053757  2.30599931 2.30662252 2.30724535 2.30786779 2.30848984
 2.30911149 2.30973275 2.31035361 2.31097408 2.31159415 2.31221382
 2.31283309 2.31345195 2.31407042 2.31468847 2.31530613 2.31592337
 2.31654021 2.31715664 2.31777265 2.31838826 2.31900345 2.31961822
 2.32023258 2.32084653 2.32146005 2.32207315 2.32268584 2.3232981
 2.32390994 2.32452135 2.32513234 2.3257429  2.32635303 2.32696273
 2.327572   2.32818084 2.32878925 2.32939722 2.33000476 2.33061186
 2.33121853 2.33182475 2.33243053 2.33303588 2.33364078 2.33424524
 2.33484925 2.33545281 2.33605593 2.33665861 2.33726083 2.3378626
 2.33846392 2.33906479 2.3396652  2.34026516 2.34086467 2.34146371
 2.3420623  2.34266043 2.3432581  2.34385531 2.34445205 2.34504833
 2.34564415 2.3462395  2.34683439 2.3474288  2.34802275 2.34861623
 2.34920924 2.34980177 2.35039383 2.35098542 2.35157654 2.35216717
 2.35275733 2.35334701 2.35393622 2.35452494 2.35511318 2.35570094
 2.35628822 2.35687501 2.35746132 2.35804714 2.35863247 2.35921732
 2.35980167 2.36038554 2.36096892 2.3615518  2.36213419 2.36271609
 2.36329749 2.3638784  2.36445881 2.36503872 2.36561813 2.36619705
 2.36677546 2.36735338 2.36793079 2.3685077 ]
t = [1.08956815e+09 1.08956820e+09 1.08956825e+09 1.08956830e+09
 1.08956835e+09 1.08956840e+09 1.08956845e+09 1.08956850e+09
 1.08956855e+09 1.08956861e+09 1.08956866e+09 1.08956871e+09
 1.08956876e+09 1.08956881e+09 1.08956886e+09 1.08956891e+09
 1.08956896e+09 1.08956901e+09 1.08956906e+09 1.08956911e+09
 1.08956916e+09 1.08956921e+09 1.08956926e+09 1.08956931e+09
 1.08956936e+09 1.08956942e+09 1.08956947e+09 1.08956952e+09
 1.08956957e+09 1.08956962e+09 1.08956967e+09 1.08956972e+09
 1.08956977e+09 1.08956982e+09 1.08956987e+09 1.08956992e+09
 1.08956997e+09 1.08957002e+09 1.08957007e+09 1.08957012e+09
 1.08957017e+09 1.08957022e+09 1.08957028e+09 1.08957033e+09
 1.08957038e+09 1.08957043e+09 1.08957048e+09 1.08957053e+09
 1.08957058e+09 1.08957063e+09 1.08957068e+09 1.08957073e+09
 1.08957078e+09 1.08957083e+09 1.08957088e+09 1.08957093e+09
 1.08957098e+09 1.08957103e+09 1.08957109e+09 1.08957114e+09
 1.08957119e+09 1.08957124e+09 1.08957129e+09 1.08957134e+09
 1.08957139e+09 1.08957144e+09 1.08957149e+09 1.08957154e+09
 1.08957159e+09 1.08957164e+09 1.08957169e+09 1.08957174e+09
 1.08957179e+09 1.08957184e+09 1.08957189e+09 1.08957195e+09
 1.08957200e+09 1.08957205e+09 1.08957210e+09 1.08957215e+09
 1.08957220e+09 1.08957225e+09 1.08957230e+09 1.08957235e+09
 1.08957240e+09 1.08957245e+09 1.08957250e+09 1.08957255e+09
 1.08957260e+09 1.08957265e+09 1.08957270e+09 1.08957275e+09
 1.08957281e+09 1.08957286e+09 1.08957291e+09 1.08957296e+09
 1.08957301e+09 1.08957306e+09 1.08957311e+09 1.08957316e+09
 1.08957321e+09 1.08957326e+09 1.08957331e+09 1.08957336e+09
 1.08957341e+09 1.08957346e+09 1.08957351e+09 1.08957356e+09
 1.08957362e+09 1.08957367e+09 1.08957372e+09 1.08957377e+09
 1.08957382e+09 1.08957387e+09 1.08957392e+09 1.08957397e+09
 1.08957402e+09 1.08957407e+09 1.08957412e+09 1.08957417e+09
 1.08957422e+09 1.08957427e+09 1.08957432e+09 1.08957437e+09
 1.08957442e+09 1.08957448e+09 1.08957453e+09 1.08957458e+09
 1.08957463e+09 1.08957468e+09 1.08957473e+09 1.08957478e+09
 1.08957483e+09 1.08957488e+09 1.08957493e+09 1.08957498e+09
 1.08957503e+09 1.08957508e+09 1.08957513e+09 1.08957518e+09
 1.08957523e+09 1.08957528e+09 1.08957534e+09 1.08957539e+09
 1.08957544e+09 1.08957549e+09 1.08957554e+09 1.08957559e+09
 1.08957564e+09 1.08957569e+09 1.08957574e+09 1.08957579e+09
 1.08957584e+09 1.08957589e+09 1.08957594e+09 1.08957599e+09
 1.08957604e+09 1.08957609e+09 1.08957615e+09 1.08957620e+09
 1.08957625e+09 1.08957630e+09 1.08957635e+09 1.08957640e+09
 1.08957645e+09 1.08957650e+09 1.08957655e+09 1.08957660e+09
 1.08957665e+09 1.08957670e+09 1.08957675e+09 1.08957680e+09
 1.08957685e+09 1.08957690e+09 1.08957695e+09 1.08957701e+09
 1.08957706e+09 1.08957711e+09 1.08957716e+09 1.08957721e+09
 1.08957726e+09 1.08957731e+09 1.08957736e+09 1.08957741e+09
 1.08957746e+09 1.08957751e+09 1.08957756e+09 1.08957761e+09
 1.08957766e+09 1.08957771e+09 1.08957776e+09 1.08957781e+09
 1.08957787e+09 1.08957792e+09 1.08957797e+09 1.08957802e+09
 1.08957807e+09 1.08957812e+09 1.08957817e+09 1.08957822e+09
 1.08957827e+09 1.08957832e+09 1.08957837e+09 1.08957842e+09
 1.08957847e+09 1.08957852e+09 1.08957857e+09 1.08957862e+09
 1.08957868e+09 1.08957873e+09 1.08957878e+09 1.08957883e+09
 1.08957888e+09 1.08957893e+09 1.08957898e+09 1.08957903e+09
 1.08957908e+09 1.08957913e+09 1.08957918e+09 1.08957923e+09
 1.08957928e+09 1.08957933e+09 1.08957938e+09 1.08957943e+09
 1.08957948e+09 1.08957954e+09 1.08957959e+09 1.08957964e+09
 1.08957969e+09 1.08957974e+09 1.08957979e+09 1.08957984e+09
 1.08957989e+09 1.08957994e+09 1.08957999e+09 1.08958004e+09
 1.08958009e+09 1.08958014e+09 1.08958019e+09 1.08958024e+09
 1.08958029e+09 1.08958034e+09 1.08958040e+09 1.08958045e+09
 1.08958050e+09 1.08958055e+09 1.08958060e+09 1.08958065e+09
 1.08958070e+09 1.08958075e+09 1.08958080e+09 1.08958085e+09
 1.08958090e+09 1.08958095e+09 1.08958100e+09 1.08958105e+09
 1.08958110e+09 1.08958115e+09 1.08958121e+09 1.08958126e+09
 1.08958131e+09 1.08958136e+09 1.08958141e+09 1.08958146e+09
 1.08958151e+09 1.08958156e+09 1.08958161e+09 1.08958166e+09
 1.08958171e+09 1.08958176e+09 1.08958181e+09 1.08958186e+09
 1.08958191e+09 1.08958196e+09 1.08958201e+09 1.08958207e+09
 1.08958212e+09 1.08958217e+09 1.08958222e+09 1.08958227e+09
 1.08958232e+09 1.08958237e+09 1.08958242e+09 1.08958247e+09
 1.08958252e+09 1.08958257e+09 1.08958262e+09 1.08958267e+09
 1.08958272e+09 1.08958277e+09 1.08958282e+09 1.08958287e+09
 1.08958293e+09 1.08958298e+09 1.08958303e+09 1.08958308e+09
 1.08958313e+09 1.08958318e+09 1.08958323e+09 1.08958328e+09
 1.08958333e+09 1.08958338e+09 1.08958343e+09 1.08958348e+09
 1.08958353e+09 1.08958358e+09 1.08958363e+09 1.08958368e+09
 1.08958374e+09 1.08958379e+09 1.08958384e+09 1.08958389e+09
 1.08958394e+09 1.08958399e+09 1.08958404e+09 1.08958409e+09
 1.08958414e+09 1.08958419e+09 1.08958424e+09 1.08958429e+09
 1.08958434e+09 1.08958439e+09 1.08958444e+09 1.08958449e+09
 1.08958454e+09 1.08958460e+09 1.08958465e+09 1.08958470e+09
 1.08958475e+09 1.08958480e+09 1.08958485e+09 1.08958490e+09
 1.08958495e+09 1.08958500e+09 1.08958505e+09 1.08958510e+09
 1.08958515e+09 1.08958520e+09 1.08958525e+09 1.08958530e+09
 1.08958535e+09 1.08958540e+09 1.08958546e+09 1.08958551e+09
 1.08958556e+09 1.08958561e+09 1.08958566e+09 1.08958571e+09
 1.08958576e+09 1.08958581e+09 1.08958586e+09 1.08958591e+09
 1.08958596e+09 1.08958601e+09 1.08958606e+09 1.08958611e+09
 1.08958616e+09 1.08958621e+09 1.08958627e+09 1.08958632e+09
 1.08958637e+09 1.08958642e+09 1.08958647e+09 1.08958652e+09
 1.08958657e+09 1.08958662e+09 1.08958667e+09 1.08958672e+09
 1.08958677e+09 1.08958682e+09 1.08958687e+09 1.08958692e+09
 1.08958697e+09 1.08958702e+09 1.08958707e+09 1.08958713e+09
 1.08958718e+09 1.08958723e+09 1.08958728e+09 1.08958733e+09
 1.08958738e+09 1.08958743e+09 1.08958748e+09 1.08958753e+09
 1.08958758e+09 1.08958763e+09 1.08958768e+09 1.08958773e+09
 1.08958778e+09 1.08958783e+09 1.08958788e+09 1.08958794e+09
 1.08958799e+09 1.08958804e+09 1.08958809e+09 1.08958814e+09
 1.08958819e+09 1.08958824e+09 1.08958829e+09 1.08958834e+09
 1.08958839e+09 1.08958844e+09 1.08958849e+09 1.08958854e+09
 1.08958859e+09 1.08958864e+09 1.08958869e+09 1.08958874e+09
 1.08958880e+09 1.08958885e+09 1.08958890e+09 1.08958895e+09
 1.08958900e+09 1.08958905e+09 1.08958910e+09 1.08958915e+09
 1.08958920e+09 1.08958925e+09 1.08958930e+09 1.08958935e+09
 1.08958940e+09 1.08958945e+09 1.08958950e+09 1.08958955e+09
 1.08958960e+09 1.08958966e+09 1.08958971e+09 1.08958976e+09
 1.08958981e+09 1.08958986e+09 1.08958991e+09 1.08958996e+09
 1.08959001e+09 1.08959006e+09 1.08959011e+09 1.08959016e+09
 1.08959021e+09 1.08959026e+09 1.08959031e+09 1.08959036e+09
 1.08959041e+09 1.08959047e+09 1.08959052e+09 1.08959057e+09
 1.08959062e+09 1.08959067e+09 1.08959072e+09 1.08959077e+09
 1.08959082e+09 1.08959087e+09 1.08959092e+09 1.08959097e+09
 1.08959102e+09 1.08959107e+09 1.08959112e+09 1.08959117e+09
 1.08959122e+09 1.08959127e+09 1.08959133e+09 1.08959138e+09
 1.08959143e+09 1.08959148e+09 1.08959153e+09 1.08959158e+09
 1.08959163e+09 1.08959168e+09 1.08959173e+09 1.08959178e+09
 1.08959183e+09 1.08959188e+09 1.08959193e+09 1.08959198e+09
 1.08959203e+09 1.08959208e+09 1.08959213e+09 1.08959219e+09
 1.08959224e+09 1.08959229e+09 1.08959234e+09 1.08959239e+09
 1.08959244e+09 1.08959249e+09 1.08959254e+09 1.08959259e+09
 1.08959264e+09 1.08959269e+09 1.08959274e+09 1.08959279e+09
 1.08959284e+09 1.08959289e+09 1.08959294e+09 1.08959300e+09
 1.08959305e+09 1.08959310e+09 1.08959315e+09 1.08959320e+09
 1.08959325e+09 1.08959330e+09 1.08959335e+09 1.08959340e+09
 1.08959345e+09 1.08959350e+09 1.08959355e+09 1.08959360e+09
 1.08959365e+09 1.08959370e+09 1.08959375e+09 1.08959380e+09
 1.08959386e+09 1.08959391e+09 1.08959396e+09 1.08959401e+09
 1.08959406e+09 1.08959411e+09 1.08959416e+09 1.08959421e+09
 1.08959426e+09 1.08959431e+09 1.08959436e+09 1.08959441e+09
 1.08959446e+09 1.08959451e+09 1.08959456e+09 1.08959461e+09
 1.08959466e+09 1.08959472e+09 1.08959477e+09 1.08959482e+09
 1.08959487e+09 1.08959492e+09 1.08959497e+09 1.08959502e+09
 1.08959507e+09 1.08959512e+09 1.08959517e+09 1.08959522e+09
 1.08959527e+09 1.08959532e+09 1.08959537e+09 1.08959542e+09
 1.08959547e+09 1.08959553e+09 1.08959558e+09 1.08959563e+09
 1.08959568e+09 1.08959573e+09 1.08959578e+09 1.08959583e+09
 1.08959588e+09 1.08959593e+09 1.08959598e+09 1.08959603e+09
 1.08959608e+09 1.08959613e+09 1.08959618e+09 1.08959623e+09
 1.08959628e+09 1.08959633e+09 1.08959639e+09 1.08959644e+09
