name =JUICE_ROI_GAN_4_3_07
flyby = ['2034 JUL 11 19:50:31', '2034 JUL 12 19:50:31']
Observation TW = <SpiceCell dtype = 1, length = 0, size = 2600, card = 6, is_set = 1, adjust = 0, init = 1, base = 94701156890880, data = 94701156890928>
Res(t) = [3.1099848  3.10865299 3.10732521 3.10600147 3.10468175 3.10336604
 3.10205434 3.10074664 3.09944292 3.0981432  3.09684745 3.09555567
 3.09426785 3.09298399 3.09170407 3.0904281  3.08915605 3.08788794
 3.08662374 3.08536345 3.08410706 3.08285457 3.08160596 3.08036124
 3.0791204  3.07788341 3.07665029 3.07542102 3.0741956  3.07297401
 3.07175626 3.07054232 3.06933221 3.0681259  3.0669234  3.06572469
 3.06452978 3.06333863 3.06215127 3.06096767 3.05978784 3.05861175
 3.05743941 3.05627081 3.05510594 3.05394479 3.05278737 3.05163365
 3.05048364 3.04933733 3.04819471 3.04705577 3.04592051 3.04478891
 3.04366098 3.04253671 3.04141608 3.0402991  3.03918575 3.03807604
 3.03696994 3.03586746 3.03476859 3.03367332 3.03258165 3.03149356
 3.03040906 3.02932813 3.02825077 3.02717698 3.02610674 3.02504004
 3.02397689 3.02291728 3.02186119 3.02080863 3.01975958 3.01871405
 3.01767201 3.01663347 3.01559843 3.01456686 3.01353877 3.01251416
 3.01149301 3.01047531 3.00946107 3.00845028 3.00744292 3.00643899
 3.00543849 3.00444141 3.00344775 3.00245749 3.00147063 3.00048716
 2.99950709 2.99853039 2.99755707 2.99658713 2.99562054 2.99465731
 2.99369744 2.99274091 2.99178771 2.99083785 2.98989132 2.9889481
 2.98800821 2.98707161 2.98613832 2.98520833 2.98428163 2.98335821
 2.98243806 2.98152119 2.98060759 2.97969724 2.97879015 2.97788631
 2.97698571 2.97608835 2.97519421 2.9743033  2.97341561 2.97253113
 2.97164985 2.97077178 2.9698969  2.96902522 2.96815671 2.96729139
 2.96642923 2.96557024 2.96471441 2.96386173 2.9630122  2.96216582
 2.96132257 2.96048245 2.95964546 2.95881159 2.95798084 2.95715319
 2.95632864 2.9555072  2.95468884 2.95387357 2.95306139 2.95225227
 2.95144623 2.95064325 2.94984333 2.94904646 2.94825264 2.94746186
 2.94667411 2.9458894  2.94510771 2.94432904 2.94355339 2.94278075
 2.94201111 2.94124447 2.94048082 2.93972015 2.93896248 2.93820777
 2.93745604 2.93670727 2.93596147 2.93521862 2.93447872 2.93374176
 2.93300775 2.93227667 2.93154851 2.93082328 2.93010097 2.92938158
 2.92866508 2.9279515  2.92724081 2.92653302 2.92582811 2.92512608
 2.92442693 2.92373065 2.92303724 2.92234669 2.921659   2.92097416
 2.92029216 2.91961301 2.91893669 2.9182632  2.91759254 2.9169247
 2.91625968 2.91559747 2.91493807 2.91428146 2.91362766 2.91297664
 2.91232841 2.91168296 2.91104029 2.91040039 2.90976326 2.90912889
 2.90849727 2.90786841 2.9072423  2.90661893 2.90599829 2.90538039
 2.90476522 2.90415278 2.90354304 2.90293603 2.90233172 2.90173011
 2.90113121 2.900535   2.89994148 2.89935065 2.8987625  2.89817702
 2.89759421 2.89701408 2.8964366  2.89586178 2.89528962 2.8947201
 2.89415322 2.89358899 2.89302739 2.89246841 2.89191207 2.89135834
 2.89080723 2.89025874 2.88971285 2.88916956 2.88862887 2.88809077
 2.88755527 2.88702234 2.886492   2.88596423 2.88543904 2.88491641
 2.88439635 2.88387884 2.88336388 2.88285148 2.88234162 2.8818343
 2.88132952 2.88082727 2.88032754 2.87983034 2.87933566 2.87884349
 2.87835383 2.87786668 2.87738203 2.87689988 2.87642022 2.87594305
 2.87546836 2.87499615 2.87452642 2.87405917 2.87359438 2.87313205
 2.87267218 2.87221477 2.87175981 2.8713073  2.87085723 2.8704096
 2.8699644  2.86952163 2.86908129 2.86864337 2.86820787 2.86777478
 2.86734411 2.86691584 2.86648997 2.8660665  2.86564542 2.86522673
 2.86481043 2.86439651 2.86398497 2.8635758  2.86316901 2.86276457
 2.8623625  2.86196279 2.86156544 2.86117042 2.86077776 2.86038745
 2.85999946 2.85961382 2.8592305  2.85884951 2.85847085 2.8580945
 2.85772047 2.85734875 2.85697934 2.85661223 2.85624742 2.85588491
 2.85552469 2.85516676 2.85481111 2.85445775 2.85410666 2.85375784
 2.8534113  2.85306702 2.85272501 2.85238525 2.85204775 2.85171249
 2.85137949 2.85104873 2.85072022 2.85039393 2.85006989 2.84974806
 2.84942847 2.8491111  2.84879595 2.84848301 2.84817228 2.84786376
 2.84755745 2.84725333 2.84695141 2.84665169 2.84635416 2.84605881
 2.84576565 2.84547466 2.84518585 2.84489922 2.84461475 2.84433245
 2.84405231 2.84377432 2.8434985  2.84322482 2.84295329 2.84268391
 2.84241667 2.84215157 2.8418886  2.84162776 2.84136905 2.84111246
 2.840858   2.84060565 2.84035542 2.84010729 2.83986128 2.83961737
 2.83937555 2.83913584 2.83889822 2.83866269 2.83842925 2.83819789
 2.83796862 2.83774142 2.8375163  2.83729325 2.83707226 2.83685334
 2.83663649 2.83642169 2.83620894 2.83599825 2.83578961 2.83558301
 2.83537845 2.83517593 2.83497545 2.834777   2.83458058 2.83438619
 2.83419382 2.83400347 2.83381514 2.83362882 2.83344451 2.83326221
 2.83308192 2.83290362 2.83272733 2.83255303 2.83238072 2.8322104
 2.83204207 2.83187572 2.83171135 2.83154896 2.83138854 2.8312301
 2.83107362 2.83091911 2.83076656 2.83061596 2.83046733 2.83032065
 2.83017591 2.83003313 2.82989229 2.82975339 2.82961643 2.8294814
 2.82934831 2.82921715 2.82908791 2.8289606  2.82883521 2.82871173
 2.82859018 2.82847053 2.82835279 2.82823697 2.82812304 2.82801102
 2.82790089 2.82779266 2.82768632 2.82758188 2.82747931 2.82737864
 2.82727984 2.82718292 2.82708788 2.82699472 2.82690342 2.82681399
 2.82672642 2.82664072 2.82655687 2.82647489 2.82639475 2.82631647
 2.82624004 2.82616545 2.82609271 2.8260218  2.82595273 2.8258855
 2.8258201  2.82575653 2.82569479 2.82563487 2.82557677 2.8255205
 2.82546604 2.82541339 2.82536256 2.82531353 2.82526631 2.82522089
 2.82517728 2.82513546 2.82509544 2.82505721 2.82502077 2.82498612
 2.82495326 2.82492218 2.82489288 2.82486535 2.82483961 2.82481563
 2.82479343 2.82477299 2.82475432 2.82473742 2.82472227 2.82470888
 2.82469725 2.82468737 2.82467924 2.82467286 2.82466823 2.82466533
 2.82466418 2.82466477 2.82466709 2.82467115 2.82467694 2.82468446
 2.8246937  2.82470467 2.82471736 2.82473177 2.8247479  2.82476574
 2.82478529 2.82480656 2.82482953 2.8248542  2.82488058 2.82490866
 2.82493844 2.82496991 2.82500308 2.82503794 2.82507449 2.82511272
 2.82515264 2.82519424 2.82523752 2.82528248 2.82532912 2.82537742
 2.8254274  2.82547905 2.82553237 2.82558734 2.82564398 2.82570228
 2.82576224 2.82582386 2.82588712 2.82595204 2.82601861 2.82608682
 2.82615668 2.82622818 2.82630132 2.8263761  2.82645251 2.82653056
 2.82661024 2.82669154 2.82677448 2.82685904 2.82694523 2.82703303
 2.82712246 2.8272135  2.82730615 2.82740042 2.8274963  2.82759379
 2.82769288 2.82779358 2.82789588 2.82799978 2.82810528 2.82821238
 2.82832107 2.82843135 2.82854322 2.82865668 2.82877172 2.82888835
 2.82900656 2.82912636 2.82924773 2.82937067 2.8294952  2.82962129
 2.82974895 2.82987818 2.83000897 2.83014134 2.83027526 2.83041074
 2.83054779 2.83068638 2.83082654 2.83096824 2.8311115  2.83125631
 2.83140266 2.83155056 2.8317     2.83185098 2.8320035  2.83215756
 2.83231316 2.83247028 2.83262895 2.83278914 2.83295086 2.8331141
 2.83327887 2.83344516 2.83361298 2.83378231 2.83395316 2.83412553
 2.83429941 2.8344748  2.8346517  2.83483011 2.83501003 2.83519145
 2.83537437 2.8355588  2.83574472 2.83593214 2.83612106 2.83631147
 2.83650338 2.83669677 2.83689166 2.83708803 2.83728589 2.83748523
 2.83768605 2.83788836 2.83809214 2.8382974  2.83850413 2.83871234
 2.83892202 2.83913317 2.83934579 2.83955987 2.83977542 2.83999244
 2.84021092 2.84043085 2.84065225 2.8408751  2.84109941 2.84132517
 2.84155238 2.84178105 2.84201116 2.84224272 2.84247573 2.84271018
 2.84294607 2.84318341 2.84342218 2.84366239 2.84390404 2.84414712
 2.84439164 2.84463758 2.84488496 2.84513377 2.845384   2.84563566
 2.84588874 2.84614324 2.84639917 2.84665651 2.84691527 2.84717545
 2.84743704 2.84770005 2.84796447 2.84823029 2.84849753 2.84876617
 2.84903622 2.84930768 2.84958053 2.84985479 2.85013045 2.85040751
 2.85068596 2.85096582 2.85124706 2.8515297  2.85181372 2.85209914
 2.85238595 2.85267414 2.85296372 2.85325469 2.85354703 2.85384076
 2.85413587 2.85443236 2.85473022 2.85502946 2.85533008 2.85563206
 2.85593543 2.85624016 2.85654626 2.85685372 2.85716256 2.85747276
 2.85778432 2.85809725 2.85841153 2.85872718 2.85904419 2.85936255
 2.85968227 2.86000334 2.86032577 2.86064955 2.86097468 2.86130115
 2.86162898 2.86195815 2.86228868 2.86262054 2.86295374 2.86328829
 2.86362418 2.86396141 2.86429998 2.86463988 2.86498112 2.8653237
 2.8656676  2.86601284 2.86635941 2.86670731 2.86705654 2.86740709
 2.86775897 2.86811218 2.86846671 2.86882256 2.86917973 2.86953822
 2.86989804 2.87025917 2.87062161 2.87098537 2.87135045 2.87171683
 2.87208453 2.87245355 2.87282386 2.87319549 2.87356843 2.87394267
 2.87431822 2.87469507 2.87507323 2.87545268 2.87583344 2.8762155
 2.87659885 2.87698351 2.87736946 2.8777567  2.87814524 2.87853507
 2.8789262  2.87931861 2.87971231 2.88010731 2.88050359 2.88090116
 2.88130001 2.88170015 2.88210157 2.88250427 2.88290826 2.88331353
 2.88372008 2.8841279  2.884537   2.88494738 2.88535904 2.88577197
 2.88618617 2.88660165 2.8870184  2.88743641 2.8878557  2.88827626
 2.88869808 2.88912117 2.88954553 2.88997115 2.89039804 2.89082619
 2.8912556  2.89168627 2.8921182  2.8925514  2.89298584 2.89342155
 2.89385852 2.89429674 2.89473621 2.89517694 2.89561892 2.89606215
 2.89650664 2.89695237 2.89739935 2.89784758 2.89829706 2.89874779
 2.89919976 2.89965298 2.90010744 2.90056315 2.9010201  2.90147828
 2.90193772 2.90239839 2.90286029 2.90332344 2.90378783 2.90425345
 2.9047203  2.9051884  2.90565773 2.90612828 2.90660008 2.9070731
 2.90754736 2.90802284 2.90849956 2.9089775  2.90945668 2.90993708
 2.9104187  2.91090155 2.91138563 2.91187093 2.91235745 2.9128452
 2.91333417 2.91382436 2.91431577 2.9148084  2.91530225 2.91579732
 2.9162936  2.9167911  2.91728982 2.91778975 2.9182909  2.91879327
 2.91929684 2.91980163 2.92030763 2.92081484 2.92132326 2.9218329
 2.92234374 2.92285579 2.92336905 2.92388351 2.92439918 2.92491606
 2.92543415 2.92595343 2.92647393 2.92699562 2.92751852 2.92804262
 2.92856793 2.92909443 2.92962213 2.93015104 2.93068114 2.93121244
 2.93174494 2.93227864 2.93281354 2.93334963 2.93388691 2.93442539
 2.93496507 2.93550594 2.936048   2.93659126 2.9371357  2.93768135
 2.93822818 2.93877619 2.93932541 2.93987581 2.9404274  2.94098018
 2.94153414 2.9420893  2.94264564 2.94320316 2.94376188 2.94432178
 2.94488286 2.94544513 2.94600858 2.94657321 2.94713903 2.94770603
 2.94827422 2.94884358 2.94941413 2.94998585 2.95055876 2.95113284
 2.95170811 2.95228455 2.95286217 2.95344097 2.95402095 2.9546021
 2.95518443 2.95576794 2.95635262 2.95693848 2.95752551 2.95811372
 2.9587031  2.95929366 2.95988539 2.96047829 2.96107236 2.96166761
 2.96226402 2.96286161 2.96346037 2.9640603  2.9646614  2.96526368
 2.96586712 2.96647172 2.9670775  2.96768445 2.96829256 2.96890185
 2.96951229 2.97012391 2.97073669 2.97135064 2.97196576 2.97258204
 2.97319949 2.9738181  2.97443788 2.97505882 2.97568093 2.9763042
 2.97692864 2.97755423 2.978181   2.97880892 2.97943801 2.98006826
 2.98069967 2.98133224 2.98196597 2.98260087 2.98323693 2.98387414
 2.98451252 2.98515206 2.98579276 2.98643462 2.98707764 2.98772182
 2.98836715 2.98901365 2.9896613  2.99031012 2.99096009 2.99161122
 2.99226351 2.99291695 2.99357156 2.99422732 2.99488423 2.99554231
 2.99620154 2.99686193 2.99752347 2.99818617 2.99885003 2.99951505
 3.00018122 3.00084854 3.00151702 3.00218666 3.00285745 3.0035294
 3.0042025  3.00487676 3.00555217 3.00622874]
t = [1.08957835e+09 1.08957839e+09 1.08957843e+09 1.08957847e+09
 1.08957851e+09 1.08957855e+09 1.08957859e+09 1.08957863e+09
 1.08957866e+09 1.08957870e+09 1.08957874e+09 1.08957878e+09
 1.08957882e+09 1.08957886e+09 1.08957890e+09 1.08957894e+09
 1.08957898e+09 1.08957902e+09 1.08957906e+09 1.08957910e+09
 1.08957914e+09 1.08957918e+09 1.08957922e+09 1.08957925e+09
 1.08957929e+09 1.08957933e+09 1.08957937e+09 1.08957941e+09
 1.08957945e+09 1.08957949e+09 1.08957953e+09 1.08957957e+09
 1.08957961e+09 1.08957965e+09 1.08957969e+09 1.08957973e+09
 1.08957977e+09 1.08957981e+09 1.08957985e+09 1.08957988e+09
 1.08957992e+09 1.08957996e+09 1.08958000e+09 1.08958004e+09
 1.08958008e+09 1.08958012e+09 1.08958016e+09 1.08958020e+09
 1.08958024e+09 1.08958028e+09 1.08958032e+09 1.08958036e+09
 1.08958040e+09 1.08958044e+09 1.08958047e+09 1.08958051e+09
 1.08958055e+09 1.08958059e+09 1.08958063e+09 1.08958067e+09
 1.08958071e+09 1.08958075e+09 1.08958079e+09 1.08958083e+09
 1.08958087e+09 1.08958091e+09 1.08958095e+09 1.08958099e+09
 1.08958103e+09 1.08958106e+09 1.08958110e+09 1.08958114e+09
 1.08958118e+09 1.08958122e+09 1.08958126e+09 1.08958130e+09
 1.08958134e+09 1.08958138e+09 1.08958142e+09 1.08958146e+09
 1.08958150e+09 1.08958154e+09 1.08958158e+09 1.08958162e+09
 1.08958165e+09 1.08958169e+09 1.08958173e+09 1.08958177e+09
 1.08958181e+09 1.08958185e+09 1.08958189e+09 1.08958193e+09
 1.08958197e+09 1.08958201e+09 1.08958205e+09 1.08958209e+09
 1.08958213e+09 1.08958217e+09 1.08958221e+09 1.08958224e+09
 1.08958228e+09 1.08958232e+09 1.08958236e+09 1.08958240e+09
 1.08958244e+09 1.08958248e+09 1.08958252e+09 1.08958256e+09
 1.08958260e+09 1.08958264e+09 1.08958268e+09 1.08958272e+09
 1.08958276e+09 1.08958280e+09 1.08958283e+09 1.08958287e+09
 1.08958291e+09 1.08958295e+09 1.08958299e+09 1.08958303e+09
 1.08958307e+09 1.08958311e+09 1.08958315e+09 1.08958319e+09
 1.08958323e+09 1.08958327e+09 1.08958331e+09 1.08958335e+09
 1.08958339e+09 1.08958342e+09 1.08958346e+09 1.08958350e+09
 1.08958354e+09 1.08958358e+09 1.08958362e+09 1.08958366e+09
 1.08958370e+09 1.08958374e+09 1.08958378e+09 1.08958382e+09
 1.08958386e+09 1.08958390e+09 1.08958394e+09 1.08958398e+09
 1.08958402e+09 1.08958405e+09 1.08958409e+09 1.08958413e+09
 1.08958417e+09 1.08958421e+09 1.08958425e+09 1.08958429e+09
 1.08958433e+09 1.08958437e+09 1.08958441e+09 1.08958445e+09
 1.08958449e+09 1.08958453e+09 1.08958457e+09 1.08958461e+09
 1.08958464e+09 1.08958468e+09 1.08958472e+09 1.08958476e+09
 1.08958480e+09 1.08958484e+09 1.08958488e+09 1.08958492e+09
 1.08958496e+09 1.08958500e+09 1.08958504e+09 1.08958508e+09
 1.08958512e+09 1.08958516e+09 1.08958520e+09 1.08958523e+09
 1.08958527e+09 1.08958531e+09 1.08958535e+09 1.08958539e+09
 1.08958543e+09 1.08958547e+09 1.08958551e+09 1.08958555e+09
 1.08958559e+09 1.08958563e+09 1.08958567e+09 1.08958571e+09
 1.08958575e+09 1.08958579e+09 1.08958582e+09 1.08958586e+09
 1.08958590e+09 1.08958594e+09 1.08958598e+09 1.08958602e+09
 1.08958606e+09 1.08958610e+09 1.08958614e+09 1.08958618e+09
 1.08958622e+09 1.08958626e+09 1.08958630e+09 1.08958634e+09
 1.08958638e+09 1.08958641e+09 1.08958645e+09 1.08958649e+09
 1.08958653e+09 1.08958657e+09 1.08958661e+09 1.08958665e+09
 1.08958669e+09 1.08958673e+09 1.08958677e+09 1.08958681e+09
 1.08958685e+09 1.08958689e+09 1.08958693e+09 1.08958697e+09
 1.08958700e+09 1.08958704e+09 1.08958708e+09 1.08958712e+09
 1.08958716e+09 1.08958720e+09 1.08958724e+09 1.08958728e+09
 1.08958732e+09 1.08958736e+09 1.08958740e+09 1.08958744e+09
 1.08958748e+09 1.08958752e+09 1.08958756e+09 1.08958759e+09
 1.08958763e+09 1.08958767e+09 1.08958771e+09 1.08958775e+09
 1.08958779e+09 1.08958783e+09 1.08958787e+09 1.08958791e+09
 1.08958795e+09 1.08958799e+09 1.08958803e+09 1.08958807e+09
 1.08958811e+09 1.08958815e+09 1.08958819e+09 1.08958822e+09
 1.08958826e+09 1.08958830e+09 1.08958834e+09 1.08958838e+09
 1.08958842e+09 1.08958846e+09 1.08958850e+09 1.08958854e+09
 1.08958858e+09 1.08958862e+09 1.08958866e+09 1.08958870e+09
 1.08958874e+09 1.08958878e+09 1.08958881e+09 1.08958885e+09
 1.08958889e+09 1.08958893e+09 1.08958897e+09 1.08958901e+09
 1.08958905e+09 1.08958909e+09 1.08958913e+09 1.08958917e+09
 1.08958921e+09 1.08958925e+09 1.08958929e+09 1.08958933e+09
 1.08958937e+09 1.08958940e+09 1.08958944e+09 1.08958948e+09
 1.08958952e+09 1.08958956e+09 1.08958960e+09 1.08958964e+09
 1.08958968e+09 1.08958972e+09 1.08958976e+09 1.08958980e+09
 1.08958984e+09 1.08958988e+09 1.08958992e+09 1.08958996e+09
 1.08958999e+09 1.08959003e+09 1.08959007e+09 1.08959011e+09
 1.08959015e+09 1.08959019e+09 1.08959023e+09 1.08959027e+09
 1.08959031e+09 1.08959035e+09 1.08959039e+09 1.08959043e+09
 1.08959047e+09 1.08959051e+09 1.08959055e+09 1.08959058e+09
 1.08959062e+09 1.08959066e+09 1.08959070e+09 1.08959074e+09
 1.08959078e+09 1.08959082e+09 1.08959086e+09 1.08959090e+09
 1.08959094e+09 1.08959098e+09 1.08959102e+09 1.08959106e+09
 1.08959110e+09 1.08959114e+09 1.08959117e+09 1.08959121e+09
 1.08959125e+09 1.08959129e+09 1.08959133e+09 1.08959137e+09
 1.08959141e+09 1.08959145e+09 1.08959149e+09 1.08959153e+09
 1.08959157e+09 1.08959161e+09 1.08959165e+09 1.08959169e+09
 1.08959173e+09 1.08959176e+09 1.08959180e+09 1.08959184e+09
 1.08959188e+09 1.08959192e+09 1.08959196e+09 1.08959200e+09
 1.08959204e+09 1.08959208e+09 1.08959212e+09 1.08959216e+09
 1.08959220e+09 1.08959224e+09 1.08959228e+09 1.08959232e+09
 1.08959235e+09 1.08959239e+09 1.08959243e+09 1.08959247e+09
 1.08959251e+09 1.08959255e+09 1.08959259e+09 1.08959263e+09
 1.08959267e+09 1.08959271e+09 1.08959275e+09 1.08959279e+09
 1.08959283e+09 1.08959287e+09 1.08959291e+09 1.08959295e+09
 1.08959298e+09 1.08959302e+09 1.08959306e+09 1.08959310e+09
 1.08959314e+09 1.08959318e+09 1.08959322e+09 1.08959326e+09
 1.08959330e+09 1.08959334e+09 1.08959338e+09 1.08959342e+09
 1.08959346e+09 1.08959350e+09 1.08959354e+09 1.08959357e+09
 1.08959361e+09 1.08959365e+09 1.08959369e+09 1.08959373e+09
 1.08959377e+09 1.08959381e+09 1.08959385e+09 1.08959389e+09
 1.08959393e+09 1.08959397e+09 1.08959401e+09 1.08959405e+09
 1.08959409e+09 1.08959413e+09 1.08959416e+09 1.08959420e+09
 1.08959424e+09 1.08959428e+09 1.08959432e+09 1.08959436e+09
 1.08959440e+09 1.08959444e+09 1.08959448e+09 1.08959452e+09
 1.08959456e+09 1.08959460e+09 1.08959464e+09 1.08959468e+09
 1.08959472e+09 1.08959475e+09 1.08959479e+09 1.08959483e+09
 1.08959487e+09 1.08959491e+09 1.08959495e+09 1.08959499e+09
 1.08959503e+09 1.08959507e+09 1.08959511e+09 1.08959515e+09
 1.08959519e+09 1.08959523e+09 1.08959527e+09 1.08959531e+09
 1.08959534e+09 1.08959538e+09 1.08959542e+09 1.08959546e+09
 1.08959550e+09 1.08959554e+09 1.08959558e+09 1.08959562e+09
 1.08959566e+09 1.08959570e+09 1.08959574e+09 1.08959578e+09
 1.08959582e+09 1.08959586e+09 1.08959590e+09 1.08959593e+09
 1.08959597e+09 1.08959601e+09 1.08959605e+09 1.08959609e+09
 1.08959613e+09 1.08959617e+09 1.08959621e+09 1.08959625e+09
 1.08959629e+09 1.08959633e+09 1.08959637e+09 1.08959641e+09
 1.08959645e+09 1.08959649e+09 1.08959652e+09 1.08959656e+09
 1.08959660e+09 1.08959664e+09 1.08959668e+09 1.08959672e+09
 1.08959676e+09 1.08959680e+09 1.08959684e+09 1.08959688e+09
 1.08959692e+09 1.08959696e+09 1.08959700e+09 1.08959704e+09
 1.08959708e+09 1.08959712e+09 1.08959715e+09 1.08959719e+09
 1.08959723e+09 1.08959727e+09 1.08959731e+09 1.08959735e+09
 1.08959739e+09 1.08959743e+09 1.08959747e+09 1.08959751e+09
 1.08959755e+09 1.08959759e+09 1.08959763e+09 1.08959767e+09
 1.08959771e+09 1.08959774e+09 1.08959778e+09 1.08959782e+09
 1.08959786e+09 1.08959790e+09 1.08959794e+09 1.08959798e+09
 1.08959802e+09 1.08959806e+09 1.08959810e+09 1.08959814e+09
 1.08959818e+09 1.08959822e+09 1.08959826e+09 1.08959830e+09
 1.08959833e+09 1.08959837e+09 1.08959841e+09 1.08959845e+09
 1.08959849e+09 1.08959853e+09 1.08959857e+09 1.08959861e+09
 1.08959865e+09 1.08959869e+09 1.08959873e+09 1.08959877e+09
 1.08959881e+09 1.08959885e+09 1.08959889e+09 1.08959892e+09
 1.08959896e+09 1.08959900e+09 1.08959904e+09 1.08959908e+09
 1.08959912e+09 1.08959916e+09 1.08959920e+09 1.08959924e+09
 1.08959928e+09 1.08959932e+09 1.08959936e+09 1.08959940e+09
 1.08959944e+09 1.08959948e+09 1.08959951e+09 1.08959955e+09
 1.08959959e+09 1.08959963e+09 1.08959967e+09 1.08959971e+09
 1.08959975e+09 1.08959979e+09 1.08959983e+09 1.08959987e+09
 1.08959991e+09 1.08959995e+09 1.08959999e+09 1.08960003e+09
 1.08960007e+09 1.08960010e+09 1.08960014e+09 1.08960018e+09
 1.08960022e+09 1.08960026e+09 1.08960030e+09 1.08960034e+09
 1.08960038e+09 1.08960042e+09 1.08960046e+09 1.08960050e+09
