name =JUICE_ROI_GAN_4_6_03
flyby = ['2034 JUL 11 19:50:31', '2034 JUL 12 19:50:31']
Observation TW = <SpiceCell dtype = 1, length = 0, size = 2600, card = 6, is_set = 1, adjust = 0, init = 1, base = 94707145046496, data = 94707145046544>
Res(t) = [3.65149961 3.64770957 3.64392552 3.64014747 3.63637543 3.63260942
 3.62884943 3.62509548 3.62134757 3.61760573 3.61386994 3.61014023
 3.6064166  3.60269907 3.59898763 3.5952823  3.59158308 3.58789
 3.58420305 3.58052224 3.57684759 3.5731791  3.56951677 3.56586063
 3.56221068 3.55856692 3.55492936 3.55129803 3.54767291 3.54405403
 3.54044138 3.53683499 3.53323486 3.52964099 3.5260534  3.52247209
 3.51889707 3.51532836 3.51176596 3.50820988 3.50466013 3.50111671
 3.49757964 3.49404892 3.49052457 3.48700659 3.48349499 3.47998978
 3.47649096 3.47299855 3.46951256 3.46603299 3.46255985 3.45909316
 3.45563291 3.45217912 3.4487318  3.44529095 3.44185659 3.43842872
 3.43500735 3.43159249 3.42818415 3.42478233 3.42138705 3.41799831
 3.41461612 3.4112405  3.40787144 3.40450896 3.40115306 3.39780376
 3.39446106 3.39112497 3.3877955  3.38447266 3.38115645 3.37784688
 3.37454397 3.37124772 3.36795814 3.36467523 3.36139901 3.35812948
 3.35486666 3.35161054 3.34836114 3.34511847 3.34188253 3.33865333
 3.33543088 3.33221519 3.32900627 3.32580412 3.32260875 3.31942018
 3.3162384  3.31306342 3.30989527 3.30673393 3.30357942 3.30043175
 3.29729093 3.29415695 3.29102984 3.2879096  3.28479624 3.28168976
 3.27859017 3.27549748 3.2724117  3.26933283 3.26626088 3.26319586
 3.26013778 3.25708665 3.25404247 3.25100525 3.247975   3.24495171
 3.24193542 3.23892611 3.2359238  3.2329285  3.2299402  3.22695893
 3.22398468 3.22101746 3.21805728 3.21510415 3.21215808 3.20921907
 3.20628712 3.20336225 3.20044447 3.19753377 3.19463017 3.19173368
 3.18884429 3.18596203 3.18308689 3.18021887 3.177358   3.17450427
 3.17165769 3.16881827 3.16598601 3.16316093 3.16034302 3.1575323
 3.15472876 3.15193243 3.14914329 3.14636137 3.14358667 3.14081918
 3.13805893 3.13530591 3.13256013 3.1298216  3.12709032 3.1243663
 3.12164955 3.11894008 3.11623787 3.11354296 3.11085533 3.108175
 3.10550197 3.10283624 3.10017784 3.09752675 3.09488298 3.09224654
 3.08961744 3.08699568 3.08438127 3.08177421 3.07917451 3.07658217
 3.0739972  3.07141961 3.06884939 3.06628656 3.06373112 3.06118307
 3.05864243 3.05610918 3.05358336 3.05106494 3.04855394 3.04605037
 3.04355423 3.04106553 3.03858426 3.03611044 3.03364407 3.03118515
 3.02873369 3.02628969 3.02385316 3.0214241  3.01900251 3.01658841
 3.01418179 3.01178267 3.00939103 3.0070069  3.00463026 3.00226113
 2.99989951 2.99754541 2.99519882 2.99285975 2.99052822 2.9882042
 2.98588773 2.98357878 2.98127739 2.97898353 2.97669723 2.97441847
 2.97214727 2.96988363 2.96762754 2.96537903 2.96313808 2.9609047
 2.9586789  2.95646068 2.95425003 2.95204697 2.9498515  2.94766362
 2.94548333 2.94331063 2.94114554 2.93898804 2.93683815 2.93469586
 2.93256118 2.93043412 2.92831467 2.92620283 2.92409861 2.92200201
 2.91991304 2.91783169 2.91575797 2.91369188 2.91163342 2.90958259
 2.9075394  2.90550384 2.90347593 2.90145565 2.89944302 2.89743803
 2.89544068 2.89345099 2.89146894 2.88949454 2.8875278  2.8855687
 2.88361726 2.88167348 2.87973735 2.87780888 2.87588807 2.87397491
 2.87206942 2.87017159 2.86828142 2.86639891 2.86452407 2.86265689
 2.86079737 2.85894553 2.85710134 2.85526483 2.85343597 2.85161479
 2.84980127 2.84799542 2.84619724 2.84440672 2.84262387 2.84084869
 2.83908118 2.83732133 2.83556915 2.83382464 2.83208779 2.83035861
 2.82863709 2.82692324 2.82521705 2.82351853 2.82182767 2.82014447
 2.81846893 2.81680105 2.81514084 2.81348828 2.81184338 2.81020613
 2.80857654 2.80695461 2.80534032 2.80373369 2.80213471 2.80054338
 2.7989597  2.79738366 2.79581526 2.79425451 2.79270139 2.79115592
 2.78961808 2.78808788 2.78656531 2.78505037 2.78354306 2.78204338
 2.78055132 2.77906689 2.77759007 2.77612087 2.77465929 2.77320532
 2.77175895 2.7703202  2.76888905 2.7674655  2.76604956 2.7646412
 2.76324045 2.76184728 2.7604617  2.7590837  2.75771328 2.75635045
 2.75499518 2.75364749 2.75230737 2.75097481 2.74964981 2.74833237
 2.74702248 2.74572015 2.74442536 2.74313811 2.7418584  2.74058623
 2.73932158 2.73806447 2.73681488 2.7355728  2.73433824 2.73311119
 2.73189165 2.73067961 2.72947506 2.72827801 2.72708845 2.72590637
 2.72473177 2.72356464 2.72240499 2.7212528  2.72010807 2.71897079
 2.71784096 2.71671858 2.71560364 2.71449613 2.71339606 2.7123034
 2.71121817 2.71014035 2.70906994 2.70800693 2.70695132 2.7059031
 2.70486227 2.70382882 2.70280274 2.70178403 2.70077268 2.69976869
 2.69877206 2.69778276 2.69680081 2.69582619 2.6948589  2.69389893
 2.69294627 2.69200092 2.69106287 2.69013212 2.68920866 2.68829247
 2.68738357 2.68648193 2.68558756 2.68470044 2.68382057 2.68294794
 2.68208255 2.68122439 2.68037344 2.67952972 2.67869319 2.67786387
 2.67704175 2.6762268  2.67541904 2.67461844 2.67382502 2.67303874
 2.67225962 2.67148763 2.67072279 2.66996506 2.66921446 2.66847096
 2.66773457 2.66700528 2.66628307 2.66556794 2.66485988 2.66415889
 2.66346495 2.66277806 2.66209821 2.66142538 2.66075959 2.6601008
 2.65944903 2.65880425 2.65816646 2.65753565 2.65691181 2.65629494
 2.65568503 2.65508206 2.65448603 2.65389693 2.65331475 2.65273948
 2.65217112 2.65160965 2.65105506 2.65050736 2.64996652 2.64943254
 2.64890541 2.64838512 2.64787166 2.64736502 2.6468652  2.64637218
 2.64588596 2.64540652 2.64493385 2.64446795 2.64400881 2.64355642
 2.64311077 2.64267184 2.64223963 2.64181413 2.64139533 2.64098323
 2.6405778  2.64017904 2.63978694 2.63940149 2.63902268 2.63865051
 2.63828495 2.63792601 2.63757367 2.63722791 2.63688874 2.63655614
 2.6362301  2.63591061 2.63559767 2.63529125 2.63499135 2.63469796
 2.63441107 2.63413066 2.63385674 2.63358928 2.63332828 2.63307373
 2.63282562 2.63258393 2.63234865 2.63211978 2.63189731 2.63168122
 2.6314715  2.63126814 2.63107114 2.63088047 2.63069614 2.63051812
 2.63034641 2.630181   2.63002188 2.62986903 2.62972244 2.62958211
 2.62944803 2.62932017 2.62919853 2.62908311 2.62897388 2.62887084
 2.62877397 2.62868327 2.62859873 2.62852032 2.62844805 2.6283819
 2.62832185 2.62826791 2.62822005 2.62817826 2.62814254 2.62811287
 2.62808924 2.62807165 2.62806006 2.62805449 2.62805491 2.62806131
 2.62807369 2.62809203 2.62811631 2.62814653 2.62818268 2.62822475
 2.62827271 2.62832657 2.6283863  2.62845191 2.62852337 2.62860067
 2.62868381 2.62877277 2.62886753 2.6289681  2.62907445 2.62918657
 2.62930446 2.6294281  2.62955747 2.62969258 2.62983339 2.62997991
 2.63013213 2.63029002 2.63045358 2.63062279 2.63079765 2.63097814
 2.63116425 2.63135597 2.63155328 2.63175618 2.63196465 2.63217868
 2.63239826 2.63262337 2.63285401 2.63309016 2.63333181 2.63357895
 2.63383157 2.63408965 2.63435318 2.63462216 2.63489655 2.63517637
 2.63546159 2.6357522  2.63604819 2.63634955 2.63665627 2.63696833
 2.63728572 2.63760843 2.63793644 2.63826975 2.63860835 2.63895221
 2.63930134 2.63965571 2.64001531 2.64038014 2.64075018 2.64112542
 2.64150584 2.64189143 2.64228219 2.6426781  2.64307914 2.64348531
 2.6438966  2.64431298 2.64473446 2.64516101 2.64559263 2.64602929
 2.646471   2.64691774 2.64736949 2.64782625 2.648288   2.64875473
 2.64922643 2.64970308 2.65018468 2.65067121 2.65116265 2.65165901
 2.65216026 2.65266639 2.6531774  2.65369326 2.65421397 2.65473952
 2.65526988 2.65580506 2.65634504 2.6568898  2.65743934 2.65799364
 2.65855269 2.65911648 2.659685   2.66025823 2.66083616 2.66141878
 2.66200608 2.66259805 2.66319467 2.66379594 2.66440183 2.66501235
 2.66562747 2.66624718 2.66687148 2.66750035 2.66813378 2.66877175
 2.66941426 2.67006129 2.67071284 2.67136888 2.67202941 2.67269442
 2.67336389 2.67403781 2.67471618 2.67539897 2.67608618 2.67677779
 2.6774738  2.67817419 2.67887895 2.67958807 2.68030153 2.68101933
 2.68174145 2.68246788 2.68319861 2.68393363 2.68467293 2.68541649
 2.6861643  2.68691636 2.68767264 2.68843314 2.68919786 2.68996676
 2.69073985 2.69151711 2.69229854 2.69308411 2.69387382 2.69466765
 2.6954656  2.69626766 2.6970738  2.69788403 2.69869833 2.69951668
 2.70033908 2.70116552 2.70199598 2.70283045 2.70366893 2.70451139
 2.70535784 2.70620825 2.70706262 2.70792093 2.70878318 2.70964935
 2.71051943 2.71139341 2.71227129 2.71315304 2.71403866 2.71492813
 2.71582145 2.71671861 2.71761959 2.71852438 2.71943297 2.72034536
 2.72126152 2.72218145 2.72310514 2.72403258 2.72496375 2.72589865
 2.72683726 2.72777958 2.72872559 2.72967528 2.73062865 2.73158567
 2.73254635 2.73351067 2.73447861 2.73545017 2.73642534 2.73740411
 2.73838647 2.7393724  2.7403619  2.74135495 2.74235154 2.74335168
 2.74435533 2.7453625  2.74637317 2.74738734 2.74840498 2.7494261
 2.75045068 2.75147872 2.75251019 2.75354509 2.75458342 2.75562516
 2.75667029 2.75771882 2.75877073 2.75982601 2.76088465 2.76194664
 2.76301197 2.76408063 2.76515261 2.7662279  2.76730649 2.76838837
 2.76947353 2.77056196 2.77165365 2.7727486  2.77384679 2.7749482
 2.77605284 2.77716069 2.77827174 2.77938599 2.78050342 2.78162403
 2.78274779 2.78387472 2.78500478 2.78613798 2.78727431 2.78841376
 2.78955631 2.79070196 2.7918507  2.79300252 2.7941574  2.79531535
 2.79647635 2.79764039 2.79880746 2.79997756 2.80115067 2.80232678
 2.80350589 2.80468799 2.80587307 2.80706111 2.80825211 2.80944607
 2.81064297 2.8118428  2.81304555 2.81425122 2.81545979 2.81667126
 2.81788563 2.81910287 2.82032297 2.82154595 2.82277178 2.82400045
 2.82523196 2.82646629 2.82770345 2.82894341 2.83018618 2.83143174
 2.83268008 2.8339312  2.83518509 2.83644174 2.83770114 2.83896328
 2.84022816 2.84149577 2.84276609 2.84403912 2.84531485 2.84659328
 2.84787439 2.84915817 2.85044463 2.85173375 2.85302552 2.85431993
 2.85561698 2.85691666 2.85821897 2.85952388 2.8608314  2.86214151
 2.86345422 2.86476951 2.86608737 2.86740779 2.86873078 2.87005631
 2.87138439 2.872715   2.87404814 2.8753838  2.87672197 2.87806265
 2.87940582 2.88075149 2.88209963 2.88345026 2.88480334 2.88615889
 2.8875169  2.88887734 2.89024023 2.89160555 2.89297329 2.89434345
 2.89571602 2.89709098 2.89846835 2.8998481  2.90123024 2.90261474
 2.90400162 2.90539085 2.90678244 2.90817638 2.90957265 2.91097126
 2.91237219 2.91377544 2.915181   2.91658887 2.91799904 2.9194115
 2.92082624 2.92224327 2.92366256 2.92508413 2.92650795 2.92793402
 2.92936234 2.9307929  2.93222569 2.93366071 2.93509795 2.9365374
 2.93797906 2.93942293 2.94086898 2.94231723 2.94376766 2.94522027
 2.94667505 2.94813199 2.94959109 2.95105235 2.95251574 2.95398129
 2.95544896 2.95691877 2.95839069 2.95986473 2.96134089 2.96281915
 2.96429951 2.96578196 2.9672665  2.96875312 2.97024182 2.97173259
 2.97322543 2.97472033 2.97621728 2.97771627 2.97921732 2.9807204
 2.98222551 2.98373265 2.98524181 2.98675299 2.98826618 2.98978137
 2.99129857 2.99281775 2.99433893 2.9958621  2.99738724 2.99891436
 3.00044345 3.00197451 3.00350752 3.00504249 3.0065794  3.00811826
 3.00965906 3.0112018  3.01274647 3.01429306 3.01584157 3.017392
 3.01894434 3.02049858 3.02205473 3.02361277 3.0251727  3.02673453
 3.02829823 3.02986382 3.03143128 3.03300061 3.0345718  3.03614486
 3.03771977 3.03929653 3.04087514 3.0424556  3.04403789 3.04562202
 3.04720798 3.04879577 3.05038538 3.05197681 3.05357005 3.0551651
 3.05676196 3.05836062 3.05996108 3.06156334 3.06316738 3.06477321
 3.06638083 3.06799022 3.06960139 3.07121433 3.07282904 3.07444551
 3.07606374 3.07768373 3.07930547 3.08092897]
t = [1.08953230e+09 1.08953239e+09 1.08953247e+09 1.08953256e+09
 1.08953265e+09 1.08953273e+09 1.08953282e+09 1.08953291e+09
 1.08953299e+09 1.08953308e+09 1.08953317e+09 1.08953325e+09
 1.08953334e+09 1.08953342e+09 1.08953351e+09 1.08953360e+09
 1.08953368e+09 1.08953377e+09 1.08953386e+09 1.08953394e+09
 1.08953403e+09 1.08953412e+09 1.08953420e+09 1.08953429e+09
 1.08953438e+09 1.08953446e+09 1.08953455e+09 1.08953464e+09
 1.08953472e+09 1.08953481e+09 1.08953489e+09 1.08953498e+09
 1.08953507e+09 1.08953515e+09 1.08953524e+09 1.08953533e+09
 1.08953541e+09 1.08953550e+09 1.08953559e+09 1.08953567e+09
 1.08953576e+09 1.08953585e+09 1.08953593e+09 1.08953602e+09
 1.08953611e+09 1.08953619e+09 1.08953628e+09 1.08953637e+09
 1.08953645e+09 1.08953654e+09 1.08953662e+09 1.08953671e+09
 1.08953680e+09 1.08953688e+09 1.08953697e+09 1.08953706e+09
 1.08953714e+09 1.08953723e+09 1.08953732e+09 1.08953740e+09
 1.08953749e+09 1.08953758e+09 1.08953766e+09 1.08953775e+09
 1.08953784e+09 1.08953792e+09 1.08953801e+09 1.08953809e+09
 1.08953818e+09 1.08953827e+09 1.08953835e+09 1.08953844e+09
 1.08953853e+09 1.08953861e+09 1.08953870e+09 1.08953879e+09
 1.08953887e+09 1.08953896e+09 1.08953905e+09 1.08953913e+09
 1.08953922e+09 1.08953931e+09 1.08953939e+09 1.08953948e+09
 1.08953957e+09 1.08953965e+09 1.08953974e+09 1.08953982e+09
 1.08953991e+09 1.08954000e+09 1.08954008e+09 1.08954017e+09
 1.08954026e+09 1.08954034e+09 1.08954043e+09 1.08954052e+09
 1.08954060e+09 1.08954069e+09 1.08954078e+09 1.08954086e+09
 1.08954095e+09 1.08954104e+09 1.08954112e+09 1.08954121e+09
 1.08954129e+09 1.08954138e+09 1.08954147e+09 1.08954155e+09
 1.08954164e+09 1.08954173e+09 1.08954181e+09 1.08954190e+09
 1.08954199e+09 1.08954207e+09 1.08954216e+09 1.08954225e+09
 1.08954233e+09 1.08954242e+09 1.08954251e+09 1.08954259e+09
 1.08954268e+09 1.08954277e+09 1.08954285e+09 1.08954294e+09
 1.08954302e+09 1.08954311e+09 1.08954320e+09 1.08954328e+09
 1.08954337e+09 1.08954346e+09 1.08954354e+09 1.08954363e+09
 1.08954372e+09 1.08954380e+09 1.08954389e+09 1.08954398e+09
 1.08954406e+09 1.08954415e+09 1.08954424e+09 1.08954432e+09
 1.08954441e+09 1.08954449e+09 1.08954458e+09 1.08954467e+09
 1.08954475e+09 1.08954484e+09 1.08954493e+09 1.08954501e+09
 1.08954510e+09 1.08954519e+09 1.08954527e+09 1.08954536e+09
 1.08954545e+09 1.08954553e+09 1.08954562e+09 1.08954571e+09
 1.08954579e+09 1.08954588e+09 1.08954597e+09 1.08954605e+09
 1.08954614e+09 1.08954622e+09 1.08954631e+09 1.08954640e+09
 1.08954648e+09 1.08954657e+09 1.08954666e+09 1.08954674e+09
 1.08954683e+09 1.08954692e+09 1.08954700e+09 1.08954709e+09
 1.08954718e+09 1.08954726e+09 1.08954735e+09 1.08954744e+09
 1.08954752e+09 1.08954761e+09 1.08954769e+09 1.08954778e+09
 1.08954787e+09 1.08954795e+09 1.08954804e+09 1.08954813e+09
 1.08954821e+09 1.08954830e+09 1.08954839e+09 1.08954847e+09
 1.08954856e+09 1.08954865e+09 1.08954873e+09 1.08954882e+09
 1.08954891e+09 1.08954899e+09 1.08954908e+09 1.08954917e+09
 1.08954925e+09 1.08954934e+09 1.08954942e+09 1.08954951e+09
 1.08954960e+09 1.08954968e+09 1.08954977e+09 1.08954986e+09
 1.08954994e+09 1.08955003e+09 1.08955012e+09 1.08955020e+09
 1.08955029e+09 1.08955038e+09 1.08955046e+09 1.08955055e+09
 1.08955064e+09 1.08955072e+09 1.08955081e+09 1.08955089e+09
 1.08955098e+09 1.08955107e+09 1.08955115e+09 1.08955124e+09
 1.08955133e+09 1.08955141e+09 1.08955150e+09 1.08955159e+09
 1.08955167e+09 1.08955176e+09 1.08955185e+09 1.08955193e+09
 1.08955202e+09 1.08955211e+09 1.08955219e+09 1.08955228e+09
 1.08955237e+09 1.08955245e+09 1.08955254e+09 1.08955262e+09
 1.08955271e+09 1.08955280e+09 1.08955288e+09 1.08955297e+09
 1.08955306e+09 1.08955314e+09 1.08955323e+09 1.08955332e+09
 1.08955340e+09 1.08955349e+09 1.08955358e+09 1.08955366e+09
 1.08955375e+09 1.08955384e+09 1.08955392e+09 1.08955401e+09
 1.08955409e+09 1.08955418e+09 1.08955427e+09 1.08955435e+09
 1.08955444e+09 1.08955453e+09 1.08955461e+09 1.08955470e+09
 1.08955479e+09 1.08955487e+09 1.08955496e+09 1.08955505e+09
 1.08955513e+09 1.08955522e+09 1.08955531e+09 1.08955539e+09
 1.08955548e+09 1.08955557e+09 1.08955565e+09 1.08955574e+09
 1.08955582e+09 1.08955591e+09 1.08955600e+09 1.08955608e+09
 1.08955617e+09 1.08955626e+09 1.08955634e+09 1.08955643e+09
 1.08955652e+09 1.08955660e+09 1.08955669e+09 1.08955678e+09
 1.08955686e+09 1.08955695e+09 1.08955704e+09 1.08955712e+09
 1.08955721e+09 1.08955729e+09 1.08955738e+09 1.08955747e+09
 1.08955755e+09 1.08955764e+09 1.08955773e+09 1.08955781e+09
 1.08955790e+09 1.08955799e+09 1.08955807e+09 1.08955816e+09
 1.08955825e+09 1.08955833e+09 1.08955842e+09 1.08955851e+09
 1.08955859e+09 1.08955868e+09 1.08955877e+09 1.08955885e+09
 1.08955894e+09 1.08955902e+09 1.08955911e+09 1.08955920e+09
 1.08955928e+09 1.08955937e+09 1.08955946e+09 1.08955954e+09
 1.08955963e+09 1.08955972e+09 1.08955980e+09 1.08955989e+09
 1.08955998e+09 1.08956006e+09 1.08956015e+09 1.08956024e+09
 1.08956032e+09 1.08956041e+09 1.08956049e+09 1.08956058e+09
 1.08956067e+09 1.08956075e+09 1.08956084e+09 1.08956093e+09
 1.08956101e+09 1.08956110e+09 1.08956119e+09 1.08956127e+09
 1.08956136e+09 1.08956145e+09 1.08956153e+09 1.08956162e+09
 1.08956171e+09 1.08956179e+09 1.08956188e+09 1.08956197e+09
 1.08956205e+09 1.08956214e+09 1.08956222e+09 1.08956231e+09
 1.08956240e+09 1.08956248e+09 1.08956257e+09 1.08956266e+09
 1.08956274e+09 1.08956283e+09 1.08956292e+09 1.08956300e+09
 1.08956309e+09 1.08956318e+09 1.08956326e+09 1.08956335e+09
 1.08956344e+09 1.08956352e+09 1.08956361e+09 1.08956369e+09
 1.08956378e+09 1.08956387e+09 1.08956395e+09 1.08956404e+09
 1.08956413e+09 1.08956421e+09 1.08956430e+09 1.08956439e+09
 1.08956447e+09 1.08956456e+09 1.08956465e+09 1.08956473e+09
 1.08956482e+09 1.08956491e+09 1.08956499e+09 1.08956508e+09
 1.08956517e+09 1.08956525e+09 1.08956534e+09 1.08956542e+09
 1.08956551e+09 1.08956560e+09 1.08956568e+09 1.08956577e+09
 1.08956586e+09 1.08956594e+09 1.08956603e+09 1.08956612e+09
 1.08956620e+09 1.08956629e+09 1.08956638e+09 1.08956646e+09
 1.08956655e+09 1.08956664e+09 1.08956672e+09 1.08956681e+09
 1.08956689e+09 1.08956698e+09 1.08956707e+09 1.08956715e+09
 1.08956724e+09 1.08956733e+09 1.08956741e+09 1.08956750e+09
 1.08956759e+09 1.08956767e+09 1.08956776e+09 1.08956785e+09
 1.08956793e+09 1.08956802e+09 1.08956811e+09 1.08956819e+09
 1.08956828e+09 1.08956837e+09 1.08956845e+09 1.08956854e+09
 1.08956862e+09 1.08956871e+09 1.08956880e+09 1.08956888e+09
 1.08956897e+09 1.08956906e+09 1.08956914e+09 1.08956923e+09
 1.08956932e+09 1.08956940e+09 1.08956949e+09 1.08956958e+09
 1.08956966e+09 1.08956975e+09 1.08956984e+09 1.08956992e+09
 1.08957001e+09 1.08957009e+09 1.08957018e+09 1.08957027e+09
 1.08957035e+09 1.08957044e+09 1.08957053e+09 1.08957061e+09
 1.08957070e+09 1.08957079e+09 1.08957087e+09 1.08957096e+09
 1.08957105e+09 1.08957113e+09 1.08957122e+09 1.08957131e+09
 1.08957139e+09 1.08957148e+09 1.08957157e+09 1.08957165e+09
 1.08957174e+09 1.08957182e+09 1.08957191e+09 1.08957200e+09
 1.08957208e+09 1.08957217e+09 1.08957226e+09 1.08957234e+09
 1.08957243e+09 1.08957252e+09 1.08957260e+09 1.08957269e+09
 1.08957278e+09 1.08957286e+09 1.08957295e+09 1.08957304e+09
 1.08957312e+09 1.08957321e+09 1.08957329e+09 1.08957338e+09
 1.08957347e+09 1.08957355e+09 1.08957364e+09 1.08957373e+09
 1.08957381e+09 1.08957390e+09 1.08957399e+09 1.08957407e+09
 1.08957416e+09 1.08957425e+09 1.08957433e+09 1.08957442e+09
 1.08957451e+09 1.08957459e+09 1.08957468e+09 1.08957477e+09
 1.08957485e+09 1.08957494e+09 1.08957502e+09 1.08957511e+09
 1.08957520e+09 1.08957528e+09 1.08957537e+09 1.08957546e+09
 1.08957554e+09 1.08957563e+09 1.08957572e+09 1.08957580e+09
 1.08957589e+09 1.08957598e+09 1.08957606e+09 1.08957615e+09
 1.08957624e+09 1.08957632e+09 1.08957641e+09 1.08957649e+09
 1.08957658e+09 1.08957667e+09 1.08957675e+09 1.08957684e+09
 1.08957693e+09 1.08957701e+09 1.08957710e+09 1.08957719e+09
 1.08957727e+09 1.08957736e+09 1.08957745e+09 1.08957753e+09
 1.08957762e+09 1.08957771e+09 1.08957779e+09 1.08957788e+09
 1.08957797e+09 1.08957805e+09 1.08957814e+09 1.08957822e+09
 1.08957831e+09 1.08957840e+09 1.08957848e+09 1.08957857e+09
 1.08957866e+09 1.08957874e+09 1.08957883e+09 1.08957892e+09
 1.08957900e+09 1.08957909e+09 1.08957918e+09 1.08957926e+09
 1.08957935e+09 1.08957944e+09 1.08957952e+09 1.08957961e+09
 1.08957969e+09 1.08957978e+09 1.08957987e+09 1.08957995e+09
 1.08958004e+09 1.08958013e+09 1.08958021e+09 1.08958030e+09
 1.08958039e+09 1.08958047e+09 1.08958056e+09 1.08958065e+09
 1.08958073e+09 1.08958082e+09 1.08958091e+09 1.08958099e+09
