name =JUICE_ROI_GAN_4_6_02
flyby = ['2034 JAN 14 06:38:51', '2034 JAN 15 06:38:51']
Observation TW = <SpiceCell dtype = 1, length = 0, size = 3400, card = 14, is_set = 1, adjust = 0, init = 1, base = 94073126541184, data = 94073126541232>
Res(t) = [0.480699   0.47928998 0.47788835 0.47649398 0.47510677 0.4737266
 0.47235335 0.47098691 0.46962718 0.46827406 0.46692743 0.46558721
 0.4642533  0.46292559 0.461604   0.46028844 0.45897881 0.45767504
 0.45637703 0.45508471 0.45379799 0.45251679 0.45124104 0.44997067
 0.44870559 0.44744573 0.44619103 0.44494141 0.44369681 0.44245716
 0.44122239 0.43999244 0.43876725 0.41380056 0.41275144 0.41170545
 0.41066254 0.40962269 0.40858585 0.40755199 0.40652107 0.40549306
 0.40446793 0.40344564 0.40242615 0.40140944 0.40039548 0.39938423
 0.39837566 0.39736975 0.39636646 0.39536577 0.39436765 0.39337206
 0.39237899 0.39138841 0.39040029 0.3894146  0.38843133 0.38745044
 0.38647191 0.38549572 0.38452184 0.38355025 0.38258093 0.38161386
 0.38064901 0.37968637 0.37872591 0.37776761 0.37681145 0.37585741
 0.37490547 0.37395561 0.37300782 0.37206207 0.37111835 0.37017663
 0.36923691 0.36829916 0.36736336 0.3664295  0.36549757 0.36456754
 0.3636394  0.36271313 0.36178873 0.36086616 0.35994542 0.3590265
 0.35810938 0.35719404 0.35628047 0.35536865 0.35445858 0.35355024
 0.35264361 0.35173869 0.35083545 0.3499339  0.34903401 0.34813577
 0.34723917 0.3463442  0.34545085 0.34455911 0.34366895 0.34278039
 0.34189339 0.34100796 0.34012407 0.33924173 0.33836092 0.33748162
 0.33660384 0.33572756 0.33485276 0.33397945 0.33310761 0.33223723
 0.33136831 0.33050083 0.32963478 0.32877016 0.32790696 0.32704517
 0.32618478 0.32532578 0.32446816 0.32361193 0.32275706 0.32190355
 0.3210514  0.32020059 0.31935113 0.31850299 0.31765618 0.31681069
 0.3159665  0.31512362 0.31428204 0.31344175 0.31260274 0.31176501
 0.31092855 0.31009335 0.30925941 0.30842673 0.30759529 0.30676509
 0.30593613 0.3051084  0.30428189 0.3034566  0.30263252 0.30132132
 0.30050302 0.29968588 0.29886992 0.29805511 0.29724147 0.29642898
 0.29561763 0.29480744 0.29399838 0.29319046 0.29238367 0.291578
 0.29077346 0.28997004 0.28916774 0.28836654 0.28756645 0.28676747
 0.28596958 0.2851728  0.25897261 0.25834644 0.25772046 0.25709469
 0.25646912 0.25584376 0.2552186  0.25459364 0.2539689  0.25334436
 0.25272004 0.25209593 0.25147203 0.25084835 0.25022488 0.24960164
 0.24897861 0.2483558  0.24773322 0.24711086 0.24648873 0.24586682
 0.24524515 0.2446237  0.24400249 0.24338151 0.24276076 0.24214025
 0.24151998 0.24089995 0.24028016 0.39218595 0.38403904 0.36115928
 0.34619808 0.33519196 0.32652812 0.31955531 0.31350556 0.30825084
 0.30360445 0.29943727 0.29565646 0.29219321 0.2889952  0.28602175
 0.28324068 0.28062609 0.27815687 0.2758156  0.37629744 0.37394183
 0.3567527  0.34416926 0.3350165  0.32777888 0.32175741 0.31657471
 0.31200484 0.30790219 0.30416762 0.3007306  0.29753925 0.29455427
 0.29174519 0.28908791 0.28656303 0.28415471 0.28184984 0.27963742
 0.27750819 0.2754542  0.27346863 0.27154558 0.26967987 0.26786698
 0.26610289 0.26438406 0.2627073  0.26106979 0.25946896 0.25790251
 0.25636835 0.25486458 0.25338946 0.25194142 0.25051899 0.24912085
 0.30840723 0.30603862 0.29107513 0.28214238 0.27572286 0.27066363
 0.26645056 0.26281211 0.25958834 0.25667753 0.25401116 0.25154098
 0.24923182 0.24705722 0.24499685 0.24303472 0.24115805 0.23935646
 0.23762142 0.23594581 0.23432362 0.23274978 0.23121993 0.22973029
 0.22827759 0.22685895 0.22547185 0.22411405 0.22278355 0.22147858
 0.22019753 0.21201798 0.21086847 0.20973672 0.20862177 0.20752275
 0.20643884 0.20536932 0.20431349 0.20327078 0.20224051 0.20122219
 0.20021532 0.19921942 0.19823407 0.19725886 0.1962934  0.19533733
 0.19439033 0.19345207 0.19252225 0.19160061 0.19068686 0.18978077
 0.18888209 0.18799061 0.1871061  0.18622837 0.18535722 0.18449248
 0.18363397 0.18278152 0.18193498 0.18109419 0.18025902 0.17942932
 0.17860497 0.17778584 0.1769718  0.17616276 0.17535858 0.17455917
 0.17376443 0.17297426 0.17218857 0.17140726 0.17063025 0.16985746
 0.16908881 0.16832421 0.1675636  0.1668069  0.16605404 0.16530497
 0.1645596  0.16381789 0.16307977 0.16234519 0.16161408 0.1608864
 0.16016209 0.15944111 0.1587234  0.15800891 0.1572976  0.15658944
 0.15588436 0.15518234 0.15448333 0.1537873  0.1530942  0.15240401
 0.15162803 0.1509436  0.15026196 0.14778223 0.14712177 0.14646382
 0.14597269 0.14531932 0.1446684  0.14401989 0.14337377 0.14273003
 0.14208863 0.14144956 0.14081281 0.14017834 0.13954614 0.1389162
 0.13803325 0.13740839 0.13558032 0.13496738 0.13435653 0.13374774
 0.13314102 0.13253633 0.13193368 0.13133306 0.13106034 0.13046263
 0.1298669  0.12927316 0.1286814  0.12809161 0.12750377 0.12691788
 0.12633393 0.12575191 0.12517182 0.12459365 0.12401738 0.12344302
 0.12139969 0.11933761 0.11895847 0.11837785 0.11779972 0.11508994
 0.11452972 0.11397182 0.11341623 0.11030051 0.10976919 0.10923995
 0.10871279 0.10818768 0.10706574 0.10673694 0.10503985 0.10450854
 0.10397969 0.10345329 0.10292932 0.10240776 0.10330536 0.10278874
 0.10227441 0.10190794 0.10138921 0.10087288 0.10035892 0.09984733
 0.0993381  0.09883121 0.09896491 0.09844456 0.0979269  0.09741192
 0.09689959 0.09638991 0.09588285 0.0953784  0.09487654 0.09437727
 0.09388161 0.09337953 0.09288014 0.09238344 0.0918894  0.09139805
 0.09090935 0.09042329 0.08993987 0.08945907 0.08809621 0.08762808
 0.08716249 0.08669947 0.086239   0.08418766 0.0837456  0.08205428
 0.08161961 0.08118759 0.08075826 0.08033157 0.07990753 0.07948613
 0.07906736 0.07865122 0.0782377  0.07782691 0.07743366 0.0770281
 0.07662517 0.07622488 0.07518381 0.0747948  0.07440837 0.07402464
 0.07364356 0.07326513 0.07288936 0.0725475  0.07217706 0.07180928
 0.07144417 0.07108177 0.07072206 0.0699436  0.06959368 0.06924656
 0.06890214 0.0660333  0.06530716 0.06456747 0.06252258 0.0622609
 0.06200263 0.06174768 0.06265959 0.06239412 0.06213215 0.06187375
 0.0616189  0.06136766 0.06111998 0.06087594 0.06048314 0.06025228
 0.06002529 0.05975367 0.05926195 0.05894078 0.05880869 0.05861448
 0.05834301 0.05816927 0.05799957 0.05794123 0.05778788 0.05761542
 0.05753314 0.05740574 0.05728263 0.0570959  0.05700381 0.05686827
 0.05672866 0.05661567 0.05647612 0.05636408 0.05628725 0.05618419
 0.05608539 0.05604873 0.0558743  0.05578813 0.05557574 0.05549008
 0.05540871 0.05531006 0.05532357 0.05512883 0.05539523 0.05519167
 0.05513957 0.05509184 0.05551356 0.05569505 0.05545518 0.05542499
 0.05558201 0.05510449 0.05535527 0.05545759 0.05551811 0.05552676
 0.05550718 0.05578317 0.05580626 0.05583398 0.05586645 0.05590356
 0.05596149 0.05600789 0.05608036 0.05613409 0.05619256 0.05625594
 0.05632391 0.0559823  0.05605027 0.05612838 0.05620558 0.05628747
 0.05637411 0.05644711 0.05654342 0.05664443 0.05630203 0.05640289
 0.05650844 0.0565218  0.05622572 0.05583589 0.05593789 0.05604457
 0.05615579 0.05627133 0.05639154 0.0565163  0.05621493 0.0563402
 0.05652712 0.05622502 0.05635386 0.05649091 0.05662846 0.05677024
 0.05742275 0.05758428 0.05798166 0.05815335 0.05832946 0.05788264
 0.05755634 0.05816335 0.05842686 0.05803439 0.05821843 0.05799563
 0.05812534 0.05831383 0.05850669 0.05804405 0.05755169 0.05773434
 0.05838919 0.05858657 0.05879047 0.05840309 0.0586044  0.05880959
 0.05901859 0.05923187 0.05944917 0.05967068 0.05991243 0.06014128
 0.06012492 0.06035642 0.06059171 0.06083101 0.06107412 0.06132139
 0.06157255 0.06101154 0.06125831 0.0608836  0.06113173 0.06138362
 0.06163937 0.06189888 0.06216238 0.06159886 0.0618577  0.06152528
 0.06178436 0.06204727 0.06232803 0.06175221 0.06201318 0.06142865
 0.06168422 0.06194332 0.06219685 0.06246275 0.06273194 0.06300465
 0.06261519 0.06288872 0.06316563 0.06344583 0.06372958 0.06438267
 0.06386003 0.06414782 0.06443908 0.06508666 0.06538722 0.06518238
 0.06530059 0.06551893 0.06511724 0.06634263 0.06567188 0.06598231
 0.06644548 0.06575772 0.06606855 0.06638272 0.06670005 0.0659304
 0.06623192 0.06690361 0.06613343 0.06794697 0.06827179 0.06786036
 0.06742439 0.06775296 0.06808478 0.06842005 0.06875868 0.06910072
 0.06944586 0.06979442 0.07014636 0.07050195 0.0701503  0.0705067
 0.07086659 0.071252   0.07075671 0.07111926 0.07148517 0.07185468
 0.07222757 0.0726043  0.07298458 0.07336817 0.07375503 0.07450698
 0.07490273 0.07530243 0.0757054  0.07581426 0.07602548 0.07643582
 0.0767056  0.07712245 0.07754302 0.07513816 0.07827217 0.07787811
 0.0783065  0.07799005 0.07712206 0.07608203 0.07649357 0.07690846
 0.07731334 0.07773466 0.07815938 0.07922361 0.07965459 0.08008895
 0.07985366 0.08060429 0.08104948 0.08149823 0.08195043 0.08140744
 0.08185885 0.0823138  0.08277231 0.0832344  0.0837001  0.08416936
 0.08464215 0.08511888 0.08559915 0.08608322 0.08657112 0.08706272
 0.08755813 0.08719791 0.08769449 0.08819487 0.08869902 0.08871041
 0.08921892 0.08957625 0.09009243 0.09061251 0.0894297  0.09164603
 0.09217922 0.09271633 0.09325733 0.09380264 0.09182349 0.09498055
 0.09554036 0.0961044  0.09667273 0.09724539 0.09782243 0.09486486
 0.09542296 0.09598544 0.09482197 0.09691623 0.09565871 0.09620739
 0.09675967 0.09731558 0.09787514 0.09843838 0.09900532 0.09957601
 0.09935677 0.09992683 0.10050056 0.10107799 0.10165916 0.1022441
 0.10283284 0.10342543 0.10402189 0.10462227 0.1052266  0.10583494
 0.10644733 0.10706382 0.10768445 0.10830927 0.10893835 0.10957174
 0.11020951 0.1108517  0.1114984  0.11214967 0.11280558 0.11346621
 0.11413165 0.11480197 0.11547727 0.11660564 0.11729576 0.11818715
 0.11889107 0.11795862 0.11866196 0.11937083 0.12008535 0.12080565
 0.12180392 0.12253989 0.12327209 0.12401873 0.12477167 0.12553105
 0.12629704 0.12706981 0.12802691 0.12881666 0.12992999 0.13073508
 0.1315477  0.13236806 0.1331964  0.13403298 0.13487804 0.13573189
 0.13659482 0.13746716 0.13834926 0.13855022 0.13521881 0.13234386
 0.13314389 0.13395086 0.13476489 0.13558637 0.13641541 0.13725226
 0.13809716 0.13895038 0.13981221 0.14068294 0.14156291 0.14245246
 0.14335197 0.14426184 0.14518251 0.14611445 0.14705817 0.14801423
 0.14898323 0.14996583 0.15096276 0.1519748  0.15300284 0.15404785
 0.15511089 0.15619317 0.15729603 0.15842099 0.15956975 0.16074428
 0.16119726 0.16238621 0.15378512 0.1547011  0.1556273  0.15656414
 0.15751212 0.15933711 0.16031378 0.16130237 0.16230342 0.16331751
 0.16434526 0.16538735 0.16644449 0.16751746 0.16860707 0.16971419
 0.17083974 0.17198462 0.17314974 0.17433574 0.17554305 0.17677059
 0.17545194 0.17667711 0.17792579 0.17919797 0.18049152 0.18098057
 0.18230048 0.1836459  0.18501376 0.18638543 0.18884794 0.19042397
 0.19205564 0.19374926 0.19551237 0.19735404 0.19928528 0.20131972
 0.20347448 0.20577147 0.20823943 0.21091707 0.21385837 0.21714181
 0.22088777 0.22529453 0.23072271 0.23793272 0.24898596 0.19676082
 0.19979819 0.20176039 0.20386664 0.20614888 0.20865056 0.2114328
 0.21458502 0.21824507 0.22264031 0.22818259 0.23572949 0.24753419
 0.25184145 0.18200821 0.18274512 0.18348362 0.18422371 0.1849654
 0.18570869 0.1864536  0.18720013 0.18794829 0.18869809 0.18944954
 0.19020265 0.19095743 0.19171388 0.19247203 0.19323188 0.19475784
 0.19552633 0.19629664 0.19706876 0.19784271 0.19861852 0.19939618
 0.20017573 0.20466732 0.20548895 0.20631268 0.20713853 0.20796651
 0.20879665 0.20962896 0.21046346 0.21130016 0.2121391  0.21298028
 0.21382374 0.21466948 0.21551754 0.21636793 0.21722069 0.21807582
 0.21893337 0.21979335 0.2206558  0.22152073]
t = [1.07414475e+09 1.07414476e+09 1.07414476e+09 1.07414477e+09
 1.07414477e+09 1.07414478e+09 1.07414479e+09 1.07414479e+09
 1.07414480e+09 1.07414480e+09 1.07414481e+09 1.07414482e+09
 1.07414482e+09 1.07414483e+09 1.07414484e+09 1.07414484e+09
 1.07414485e+09 1.07414485e+09 1.07414486e+09 1.07414487e+09
 1.07414487e+09 1.07414488e+09 1.07414488e+09 1.07414489e+09
 1.07414490e+09 1.07414490e+09 1.07414491e+09 1.07414491e+09
 1.07414492e+09 1.07414493e+09 1.07414493e+09 1.07414494e+09
 1.07414494e+09 1.07414495e+09 1.07414496e+09 1.07414496e+09
 1.07414497e+09 1.07414498e+09 1.07414498e+09 1.07414499e+09
 1.07414499e+09 1.07414500e+09 1.07414501e+09 1.07414501e+09
 1.07414502e+09 1.07414502e+09 1.07414503e+09 1.07414504e+09
 1.07414504e+09 1.07414505e+09 1.07414505e+09 1.07414506e+09
 1.07414507e+09 1.07414507e+09 1.07414508e+09 1.07414508e+09
 1.07414509e+09 1.07414510e+09 1.07414510e+09 1.07414511e+09
 1.07414512e+09 1.07414512e+09 1.07414513e+09 1.07414513e+09
 1.07414514e+09 1.07414515e+09 1.07414515e+09 1.07414516e+09
 1.07414516e+09 1.07414517e+09 1.07414518e+09 1.07414518e+09
 1.07414519e+09 1.07414519e+09 1.07414520e+09 1.07414521e+09
 1.07414521e+09 1.07414522e+09 1.07414522e+09 1.07414523e+09
 1.07414524e+09 1.07414524e+09 1.07414525e+09 1.07414525e+09
 1.07414526e+09 1.07414527e+09 1.07414527e+09 1.07414528e+09
 1.07414529e+09 1.07414529e+09 1.07414530e+09 1.07414530e+09
 1.07414531e+09 1.07414532e+09 1.07414532e+09 1.07414533e+09
 1.07414533e+09 1.07414534e+09 1.07414535e+09 1.07414535e+09
 1.07414536e+09 1.07414536e+09 1.07414537e+09 1.07414538e+09
 1.07414538e+09 1.07414539e+09 1.07414539e+09 1.07414540e+09
 1.07414541e+09 1.07414541e+09 1.07414542e+09 1.07414543e+09
 1.07414543e+09 1.07414544e+09 1.07414544e+09 1.07414545e+09
 1.07414546e+09 1.07414546e+09 1.07414547e+09 1.07414547e+09
 1.07414548e+09 1.07414549e+09 1.07414549e+09 1.07414550e+09
 1.07414550e+09 1.07414551e+09 1.07414552e+09 1.07414552e+09
 1.07414553e+09 1.07414553e+09 1.07414554e+09 1.07414555e+09
 1.07414555e+09 1.07414556e+09 1.07414557e+09 1.07414557e+09
 1.07414558e+09 1.07414558e+09 1.07414559e+09 1.07414560e+09
 1.07414560e+09 1.07414561e+09 1.07414561e+09 1.07414562e+09
 1.07414563e+09 1.07414563e+09 1.07414564e+09 1.07414564e+09
 1.07414565e+09 1.07414566e+09 1.07414566e+09 1.07414567e+09
 1.07414567e+09 1.07414568e+09 1.07414569e+09 1.07414569e+09
 1.07414570e+09 1.07414570e+09 1.07414571e+09 1.07414572e+09
 1.07414572e+09 1.07414573e+09 1.07414574e+09 1.07414574e+09
 1.07414575e+09 1.07414575e+09 1.07414576e+09 1.07414577e+09
 1.07414577e+09 1.07414578e+09 1.07414578e+09 1.07414579e+09
 1.07414580e+09 1.07414580e+09 1.07414581e+09 1.07414581e+09
 1.07414582e+09 1.07414583e+09 1.07414583e+09 1.07414584e+09
 1.07414584e+09 1.07414585e+09 1.07414586e+09 1.07414586e+09
 1.07414587e+09 1.07414588e+09 1.07414588e+09 1.07414589e+09
 1.07414589e+09 1.07414590e+09 1.07414591e+09 1.07414591e+09
 1.07414592e+09 1.07414592e+09 1.07414593e+09 1.07414594e+09
 1.07414594e+09 1.07414595e+09 1.07414595e+09 1.07414596e+09
 1.07414597e+09 1.07414597e+09 1.07414598e+09 1.07414598e+09
 1.07414599e+09 1.07414600e+09 1.07414600e+09 1.07414601e+09
 1.07414602e+09 1.07414602e+09 1.07414603e+09 1.07414603e+09
 1.07414604e+09 1.07414605e+09 1.07414605e+09 1.07414606e+09
 1.07414606e+09 1.07414607e+09 1.07414608e+09 1.07414608e+09
 1.07414609e+09 1.07414609e+09 1.07414610e+09 1.07414611e+09
 1.07414611e+09 1.07414612e+09 1.07414612e+09 1.07414613e+09
 1.07414614e+09 1.07414614e+09 1.07414615e+09 1.07414615e+09
 1.07414616e+09 1.07414617e+09 1.07414617e+09 1.07414618e+09
 1.07414619e+09 1.07414619e+09 1.07414620e+09 1.07414620e+09
 1.07414621e+09 1.07414622e+09 1.07414622e+09 1.07414623e+09
 1.07414623e+09 1.07414624e+09 1.07414625e+09 1.07414625e+09
 1.07414626e+09 1.07414626e+09 1.07414627e+09 1.07414628e+09
 1.07414628e+09 1.07414629e+09 1.07414629e+09 1.07414630e+09
 1.07414631e+09 1.07414631e+09 1.07414632e+09 1.07414633e+09
 1.07414633e+09 1.07414634e+09 1.07414634e+09 1.07414635e+09
 1.07414636e+09 1.07414636e+09 1.07414637e+09 1.07414637e+09
 1.07414638e+09 1.07414639e+09 1.07414639e+09 1.07414640e+09
 1.07414640e+09 1.07414641e+09 1.07414642e+09 1.07414642e+09
 1.07414643e+09 1.07414643e+09 1.07414644e+09 1.07414645e+09
 1.07414645e+09 1.07414646e+09 1.07414647e+09 1.07414647e+09
 1.07414648e+09 1.07414648e+09 1.07414649e+09 1.07414650e+09
 1.07414650e+09 1.07414651e+09 1.07414651e+09 1.07414652e+09
 1.07414653e+09 1.07414653e+09 1.07414654e+09 1.07414654e+09
 1.07414655e+09 1.07414656e+09 1.07414656e+09 1.07414657e+09
 1.07414657e+09 1.07414658e+09 1.07414659e+09 1.07414659e+09
 1.07414660e+09 1.07414660e+09 1.07414661e+09 1.07414662e+09
 1.07414662e+09 1.07414663e+09 1.07414664e+09 1.07414664e+09
 1.07414665e+09 1.07414665e+09 1.07414666e+09 1.07414667e+09
 1.07414667e+09 1.07414668e+09 1.07414668e+09 1.07414669e+09
 1.07414670e+09 1.07414670e+09 1.07414671e+09 1.07414671e+09
 1.07414672e+09 1.07414673e+09 1.07414673e+09 1.07414674e+09
 1.07414674e+09 1.07414675e+09 1.07414676e+09 1.07414676e+09
 1.07414677e+09 1.07414678e+09 1.07414678e+09 1.07414679e+09
 1.07414679e+09 1.07414680e+09 1.07414681e+09 1.07414681e+09
 1.07414682e+09 1.07414682e+09 1.07414683e+09 1.07414684e+09
 1.07414684e+09 1.07414685e+09 1.07414685e+09 1.07414686e+09
 1.07414687e+09 1.07414687e+09 1.07414688e+09 1.07414688e+09
 1.07414689e+09 1.07414690e+09 1.07414690e+09 1.07414691e+09
 1.07414692e+09 1.07414692e+09 1.07414693e+09 1.07414693e+09
 1.07414694e+09 1.07414695e+09 1.07414695e+09 1.07414696e+09
 1.07414696e+09 1.07414697e+09 1.07414698e+09 1.07414698e+09
 1.07414699e+09 1.07414699e+09 1.07414700e+09 1.07414701e+09
 1.07414701e+09 1.07414702e+09 1.07414702e+09 1.07414703e+09
 1.07414704e+09 1.07414704e+09 1.07414705e+09 1.07414705e+09
 1.07414706e+09 1.07414707e+09 1.07414707e+09 1.07414708e+09
 1.07414709e+09 1.07414709e+09 1.07414710e+09 1.07414710e+09
 1.07414711e+09 1.07414712e+09 1.07414712e+09 1.07414713e+09
 1.07414713e+09 1.07414714e+09 1.07414715e+09 1.07414715e+09
 1.07414716e+09 1.07414716e+09 1.07414717e+09 1.07414718e+09
 1.07414718e+09 1.07414719e+09 1.07414719e+09 1.07414720e+09
 1.07414721e+09 1.07414721e+09 1.07414722e+09 1.07414723e+09
 1.07414723e+09 1.07414724e+09 1.07414724e+09 1.07414725e+09
 1.07414726e+09 1.07414726e+09 1.07414727e+09 1.07414727e+09
 1.07414728e+09 1.07414729e+09 1.07414729e+09 1.07414730e+09
 1.07414730e+09 1.07414731e+09 1.07414732e+09 1.07414732e+09
 1.07414733e+09 1.07414733e+09 1.07414734e+09 1.07414735e+09
 1.07414735e+09 1.07414736e+09 1.07414737e+09 1.07414737e+09
 1.07414738e+09 1.07414738e+09 1.07414739e+09 1.07414740e+09
 1.07414740e+09 1.07414741e+09 1.07414741e+09 1.07414742e+09
 1.07414743e+09 1.07414743e+09 1.07414744e+09 1.07414744e+09
 1.07414745e+09 1.07414746e+09 1.07414746e+09 1.07414747e+09
 1.07414747e+09 1.07414748e+09 1.07414749e+09 1.07414749e+09
 1.07414750e+09 1.07414750e+09 1.07414751e+09 1.07414752e+09
 1.07414752e+09 1.07414753e+09 1.07414754e+09 1.07414754e+09
 1.07414755e+09 1.07414755e+09 1.07414756e+09 1.07414757e+09
 1.07414757e+09 1.07414758e+09 1.07414758e+09 1.07414759e+09
 1.07414760e+09 1.07414760e+09 1.07414761e+09 1.07414761e+09
 1.07414762e+09 1.07414763e+09 1.07414763e+09 1.07414764e+09
 1.07414764e+09 1.07414765e+09 1.07414766e+09 1.07414766e+09
 1.07414767e+09 1.07414768e+09 1.07414768e+09 1.07414769e+09
 1.07414769e+09 1.07414770e+09 1.07414771e+09 1.07414771e+09
 1.07414772e+09 1.07414772e+09 1.07414773e+09 1.07414774e+09
 1.07414774e+09 1.07414775e+09 1.07414775e+09 1.07414776e+09
 1.07414777e+09 1.07414777e+09 1.07414778e+09 1.07414778e+09
 1.07414779e+09 1.07414780e+09 1.07414780e+09 1.07414781e+09
 1.07414782e+09 1.07414782e+09 1.07414783e+09 1.07414783e+09
 1.07414784e+09 1.07414785e+09 1.07414785e+09 1.07414786e+09
 1.07414786e+09 1.07414787e+09 1.07414788e+09 1.07414788e+09
 1.07414789e+09 1.07414789e+09 1.07414790e+09 1.07414791e+09
 1.07414791e+09 1.07414792e+09 1.07414792e+09 1.07414793e+09
 1.07414794e+09 1.07414794e+09 1.07414795e+09 1.07414795e+09
 1.07414796e+09 1.07414797e+09 1.07414797e+09 1.07414798e+09
 1.07414799e+09 1.07414799e+09 1.07414800e+09 1.07414800e+09
 1.07414801e+09 1.07414802e+09 1.07414802e+09 1.07414803e+09
 1.07414803e+09 1.07414804e+09 1.07414805e+09 1.07414805e+09
 1.07414806e+09 1.07414806e+09 1.07414807e+09 1.07414808e+09
 1.07414808e+09 1.07414809e+09 1.07414809e+09 1.07414810e+09
 1.07414811e+09 1.07414811e+09 1.07414812e+09 1.07414813e+09
 1.07414813e+09 1.07414814e+09 1.07414814e+09 1.07414815e+09
