name =JUICE_ROI_GAN_4_4_04
flyby = ['2033 NOV 26 18:22:11', '2033 NOV 27 18:22:11']
Observation TW = <SpiceCell dtype = 1, length = 0, size = 3400, card = 14, is_set = 1, adjust = 0, init = 1, base = 94198739057216, data = 94198739057264>
Res(t) = [0.13783868 0.13452563 0.13265018 0.13054369 0.13010492 0.12783698
 0.12735162 0.1270841  0.12700761 0.12714494 0.12878166 0.12903472
 0.12900137 0.12946786 0.13004959 0.13073463 0.13151272 0.13237502
 0.13331381 0.13432232 0.13539461 0.13652542 0.13771005 0.13894432
 0.14022448 0.14154715 0.1429093  0.14430816 0.14574124 0.14720625
 0.14870112 0.15022395 0.15177301 0.1533467  0.15494356 0.15656222
 0.15820144 0.15986008 0.16153706 0.16323139 0.16494215 0.16666849
 0.16840962 0.1701648  0.17193332 0.17371456 0.1755079  0.17731278
 0.17912866 0.18095507 0.18279152 0.18463758 0.18457314 0.18642649
 0.18828803 0.19015741 0.19203429 0.19391838 0.19580941 0.19770711
 0.19961122 0.2015215  0.20343773 0.2053597  0.20778711 0.2097182
 0.21157243 0.21351502 0.21546256 0.21741486 0.21937179 0.22133318
 0.22329889 0.22526879 0.22724275 0.22922065 0.23120236 0.23318779
 0.23264386 0.23462175 0.23660286 0.2402414  0.24223624 0.24426551
 0.24626647 0.24827027 0.25027683 0.25228606 0.25429792 0.25631231
 0.25832919 0.26034849 0.26237014 0.2643941  0.2664203  0.26844869
 0.27047923 0.27251186 0.27112949 0.27314846 0.27516932 0.27719205
 0.2792166  0.28124295 0.28327105 0.28530089 0.28733241 0.28936561
 0.29140044 0.29343689 0.29547492 0.29751451 0.29955563 0.30159827
 0.30239724 0.30440852 0.30642071 0.30843379 0.31044773 0.31246251
 0.31447811 0.3164945  0.31851166 0.32052958 0.32254824 0.3245676
 0.32658766 0.3286084  0.3306298  0.33265185 0.33467452 0.3366978
 0.33872167 0.34074613 0.34277115 0.34479673 0.34682284 0.34884948
 0.35087664 0.3529043  0.35493244 0.35696107 0.35899016 0.36101971
 0.36304971 0.36508014 0.36711099 0.36914227 0.37117395 0.37320603
 0.37523849 0.37727134 0.37930456 0.38133815 0.3833721  0.38540639
 0.38744103 0.389476   0.3915113  0.39354692 0.39558286 0.39761911
 0.39965566 0.40169252 0.40372966 0.40576709 0.4078048  0.40984278
 0.41188104 0.41391957 0.41595835 0.4179974  0.42003669 0.42207624
 0.42411603 0.42615606 0.42819632 0.43023682 0.43227755 0.4343185
 0.43635967 0.43840107 0.44044268 0.4424845  0.44452653 0.44656877
 0.44861121 0.45065385 0.45269669 0.45473973 0.45678296 0.45882638
 0.46086999 0.46291379 0.46495777 0.46700193 0.46904628 0.4710908
 0.4731355  0.47518037 0.47722542 0.47927064 0.48131603 0.48336158
 0.48540731 0.4874532  0.48949925 0.49154547 0.49359185 0.49563839
 0.49768509 0.49973194 0.50177896 0.50382613 0.50587346 0.50792094
 0.50996857 0.51201636 0.5140643  0.51611239 0.51816063 0.52020902
 0.52225757 0.52430626 0.5263551  0.52840408 0.53045322 0.5325025
 0.53455193 0.5366015  0.53865122 0.54070109 0.5427511  0.54480126
 0.54685157 0.54890201 0.55095261 0.55300335 0.55505423 0.55710526
 0.55915643 0.56120775 0.56325921 0.56531081 0.56736257 0.56941446
 0.5714665  0.57351869 0.57557102 0.5776235  0.57967613 0.5817289
 0.58378181 0.58583487 0.58788808 0.58994144 0.59199495 0.5940486
 0.5961024  0.59815635 0.60021045 0.6022647  0.60431909 0.60637364
 0.60842834 0.61048319 0.61253819 0.61459335 0.61664866 0.61870412
 0.62075973 0.6228155  0.62487143 0.62692751 0.62898374 0.63104014
 0.63309669 0.6351534  0.63721027 0.6392673  0.64132448 0.64338183
 0.64543935 0.64749702 0.64955486 0.65161286 0.65367102 0.65572936
 0.65778785 0.65984652 0.66190535 0.66396435 0.66602352 0.66808286
 0.67014237 0.67220206 0.67426191 0.67632194 0.67838215 0.68044253
 0.68250308 0.68456382 0.68662473 0.68868582 0.69074709 0.69280854
 0.69487018 0.69693199 0.69899399 0.70105617 0.70311854 0.7051811
 0.70724384 0.70930678 0.7113699  0.71343321 0.71549671 0.71756041
 0.7196243  0.72168838 0.72375266 0.72581714 0.72788181 0.72994668
 0.73201175 0.73407703 0.7361425  0.73820818 0.74027406 0.74234014
 0.74440644 0.74647293 0.74853964 0.75060656 0.75267369 0.75474102
 0.75680857 0.75887634 0.76094432 0.76301251 0.76508093 0.76714956
 0.76921841 0.77128748 0.77335677 0.77542629 0.77749603 0.77956599
 0.78163618 0.7837066  0.78577724 0.78784812 0.78991923 0.79199057
 0.79406214 0.79613395 0.79820599 0.80027827 0.80235078 0.80442354
 0.80649654 0.80856978 0.81064326 0.81271698 0.81479095 0.81686517
 0.81893963 0.82101435 0.82308931 0.82516453 0.82723999 0.82931572
 0.83139169 0.83346792 0.83554441 0.83762116 0.83969817 0.84177544
 0.84385297 0.84593077 0.84800883 0.85008716 0.85216575 0.85424462
 0.85632375 0.85840316 0.86048284 0.86256279 0.86464301 0.86672352
 0.8688043  0.87088536 0.8729667  0.87504832 0.87713022 0.87921241
 0.88129489 0.88337765 0.8854607  0.88754403 0.88962766 0.89171158
 0.8937958  0.89588031 0.89796511 0.90005021 0.90213561 0.90422131
 0.90630731 0.90839361 0.91048022 0.91256713 0.91465435 0.91674188
 0.91882971 0.92091786 0.92300631 0.92509508 0.92718417 0.92927357
 0.93136328 0.93345332 0.93554367 0.93763435 0.93972535 0.94181667
 0.94390832 0.94600029 0.94809259 0.95018522 0.95227818 0.95437147
 0.9564651  0.95855906 0.96065336 0.96274799 0.96484296 0.96693827
 0.96903393 0.97112992 0.97322626 0.97532295 0.97741998 0.97951736
 0.98161509 0.98371317 0.9858116  0.98791039 0.99000953 0.99210903
 0.99420888 0.9963091  0.99840967 1.00051061 1.00261191 1.00471357
 1.0068156  1.008918   1.01102077 1.01312391 1.01522742 1.0173313
 1.01943556 1.02154019 1.0236452  1.02575058 1.02785635 1.0299625
 1.03206903 1.03417595 1.03628325 1.03839094 1.04049902 1.04260748
 1.04471634 1.04682559 1.04893524 1.05104528 1.05315571 1.05526655
 1.05737778 1.05948942 1.06160146 1.0637139  1.06582675 1.06794
 1.07005366 1.07216773 1.07428222 1.07639711 1.07851242 1.08062814
 1.08274428 1.08486084 1.08697782 1.08909522 1.09121304 1.09333128
 1.09544995 1.09756905 1.09968857 1.10180853 1.10392891 1.10604973
 1.10817098 1.11029267 1.11241479 1.11453735 1.11666035 1.11878379
 1.12090767 1.123032   1.12515677 1.12728199 1.12940766 1.13153378
 1.13366034 1.13578736 1.13791484 1.14004277 1.14217115 1.1443
 1.1464293  1.14855906 1.15068929 1.15281998 1.15495114 1.15708276
 1.15921486 1.16134742 1.16348045 1.16561396 1.16774794 1.16988239
 1.17201733 1.17415274 1.17628863 1.178425   1.18056186 1.1826992
 1.18483702 1.18697533 1.18911414 1.19125343 1.19339321 1.19553349
 1.19767426 1.19981553 1.20195729 1.20409956 1.20624232 1.20838559
 1.21052935 1.21267363 1.21481841 1.2169637  1.2191095  1.2212558
 1.22340262 1.22554996 1.22769781 1.22984617 1.23199506 1.23414446
 1.23629439 1.23844483 1.2405958  1.2427473  1.24489932 1.24705188
 1.24920496 1.25135857 1.25351272 1.2556674  1.25782261 1.25997837
 1.26213466 1.26429149 1.26644887 1.26860679 1.27076525 1.27292426
 1.27508381 1.27724392 1.27940457 1.28156578 1.28372754 1.28588986
 1.28805274 1.29021617 1.29238016 1.29454471 1.29670983 1.29887551
 1.30104175 1.30320856 1.30537594 1.30754389 1.30971242 1.31188151
 1.31405118 1.31622143 1.31839225 1.32056365 1.32273564 1.3249082
 1.32708135 1.32925508 1.3314294  1.33360431 1.33577981 1.3379559
 1.34013258 1.34230986 1.34448773 1.3466662  1.34884526 1.35102493
 1.3532052  1.35538607 1.35756755 1.35974963 1.36193232 1.36411562
 1.36629953 1.36848405 1.37066919 1.37285494 1.37504131 1.37722829
 1.3794159  1.38160413 1.38379298 1.38598245 1.38817255 1.39036328
 1.39255463 1.39474662 1.39693924 1.39913249 1.40132638 1.4035209
 1.40571606 1.40791186 1.4101083  1.41230539 1.41450312 1.41670149
 1.41890051 1.42110018 1.4233005  1.42550147 1.4277031  1.42990537
 1.43210831 1.4343119  1.43651616 1.43872107 1.44092664 1.44313288
 1.44533979 1.44754736 1.4497556  1.45196451 1.45417409 1.45638435
 1.45859528 1.46080688 1.46301917 1.46523213 1.46744577 1.4696601
 1.47187511 1.4740908  1.47630718 1.47852425 1.48074201 1.48296047
 1.48517961 1.48739945 1.48961998 1.49184122 1.49406315 1.49628578
 1.49850912 1.50073315 1.5029579  1.50518335 1.50740951 1.50963638
 1.51186396 1.51409225 1.51632126 1.51855099 1.52078143 1.52301259
 1.52524448 1.52747708 1.52971041 1.53194446 1.53417925 1.53641476
 1.538651   1.54088797 1.54312567 1.54536411 1.54760329 1.5498432
 1.55208386 1.55432525 1.55656739 1.55881027 1.56105389 1.56329827
 1.56554339 1.56778926 1.57003589 1.57228327 1.5745314  1.57678029
 1.57902994 1.58128035 1.58353151 1.58578345 1.58803614 1.5902896
 1.59254383 1.59479883 1.5970546  1.59931114 1.60156846 1.60382655
 1.60608541 1.60834506 1.61060548 1.61286669 1.61512868 1.61739146
 1.61965502 1.62191937 1.6241845  1.62645043 1.62871715 1.63098467
 1.63325298 1.63552209 1.637792   1.64006271 1.64233422 1.64460653
 1.64687965 1.64915357 1.65142831 1.65370385 1.6559802  1.65825737
 1.66053535 1.66281415 1.66509377 1.6673742  1.66965546 1.67193754
 1.67422044 1.67650417 1.67878872 1.68107411 1.68336032 1.68564737
 1.68793525 1.69022396 1.69251352 1.69480391 1.69709514 1.69938721
 1.70168012 1.70397388 1.70626848 1.70856394 1.71086024 1.71315739
 1.7154554  1.71775426 1.72005397 1.72235454 1.72465597 1.72695827
 1.72926142 1.73156544 1.73387032 1.73617607 1.73848269 1.74079018
 1.74309854 1.74540777 1.74771788 1.75002886 1.75234072 1.75465346
 1.75696708 1.75928159 1.76159698 1.76391326 1.76623042 1.76854847
 1.77086741 1.77318725 1.77550798 1.7778296  1.78015212 1.78247555
 1.78479987 1.78712509 1.78945122 1.79177825 1.79410619 1.79643503
 1.79876479 1.80109546 1.80342704 1.80575953 1.80809295 1.81042728
 1.81276253 1.8150987  1.81743579 1.81977381 1.82211275 1.82445263
 1.82679343 1.82913516 1.83147782 1.83382142 1.83616596 1.83851143
 1.84085784 1.84320519 1.84555348 1.84790272 1.8502529  1.85260403
 1.85495611 1.85730914 1.85966312 1.86201805 1.86437394 1.86673078
 1.86908858 1.87144735 1.87380707 1.87616776 1.87852941 1.88089203
 1.88325562 1.88562017 1.8879857  1.8903522  1.89271967 1.89508812
 1.89745755 1.89982796 1.90219935 1.90457172 1.90694507 1.90931942
 1.91169474 1.91407106 1.91644837 1.91882667 1.92120596 1.92358625
 1.92596754 1.92834983 1.93073311 1.9331174  1.93550269 1.93788899
 1.9402763  1.94266461 1.94505393 1.94744427 1.94983562 1.95222798
 1.95462136 1.95701576 1.95941118 1.96180762 1.96420509 1.96660357
 1.96900309 1.97140363 1.97380521 1.97620781 1.97861145 1.98101612
 1.98342183 1.98582858 1.98823637 1.99064519 1.99305507 1.99546598
 1.99787794 2.00029095 2.00270501 2.00512012 2.00753629 2.0099535
 2.01237178 2.01479111 2.0172115  2.01963295 2.02205547 2.02447905
 2.02690369 2.0293294  2.03175619 2.03418404 2.03661296 2.03904296
 2.04147404 2.04390619 2.04633942 2.04877373 2.05120913 2.05364561
 2.05608317 2.05852183 2.06096157 2.0634024  2.06584432 2.06828734
 2.07073146 2.07317667 2.07562298 2.07807039 2.0805189  2.08296852
 2.08541924 2.08787107 2.09032401 2.09277806 2.09523322 2.0976895
 2.10014689 2.1026054  2.10506502 2.10752577 2.10998764 2.11245064
 2.11491475 2.11738    2.11984638 2.12231388 2.12478252 2.12725229
 2.1297232  2.13219524 2.13466843 2.13714275 2.13961822 2.14209483
 2.14457258 2.14705148 2.14953154 2.15201274 2.15449509 2.1569786
 2.15946326 2.16194908 2.16443606 2.1669242  2.1694135  2.17190397
 2.1743956  2.1768884  2.17938237 2.18187751 2.18437382 2.1868713
 2.18936996 2.1918698  2.19437082 2.19687301 2.19937639 2.20188095
 2.2043867  2.20689364 2.20940176 2.21191108 2.21442159 2.21693329
 2.21944619 2.22196029 2.22447558 2.22699208 2.22950977 2.23202868
 2.23454878 2.2370701  2.23959262 2.24211636]
t = [1.06995884e+09 1.06995888e+09 1.06995892e+09 1.06995896e+09
 1.06995901e+09 1.06995905e+09 1.06995909e+09 1.06995913e+09
 1.06995917e+09 1.06995922e+09 1.06995926e+09 1.06995930e+09
 1.06995934e+09 1.06995938e+09 1.06995942e+09 1.06995947e+09
 1.06995951e+09 1.06995955e+09 1.06995959e+09 1.06995963e+09
 1.06995968e+09 1.06995972e+09 1.06995976e+09 1.06995980e+09
 1.06995984e+09 1.06995988e+09 1.06995993e+09 1.06995997e+09
 1.06996001e+09 1.06996005e+09 1.06996009e+09 1.06996014e+09
 1.06996018e+09 1.06996022e+09 1.06996026e+09 1.06996030e+09
 1.06996034e+09 1.06996039e+09 1.06996043e+09 1.06996047e+09
 1.06996051e+09 1.06996055e+09 1.06996059e+09 1.06996064e+09
 1.06996068e+09 1.06996072e+09 1.06996076e+09 1.06996080e+09
 1.06996085e+09 1.06996089e+09 1.06996093e+09 1.06996097e+09
 1.06996101e+09 1.06996105e+09 1.06996110e+09 1.06996114e+09
 1.06996118e+09 1.06996122e+09 1.06996126e+09 1.06996131e+09
 1.06996135e+09 1.06996139e+09 1.06996143e+09 1.06996147e+09
 1.06996151e+09 1.06996156e+09 1.06996160e+09 1.06996164e+09
 1.06996168e+09 1.06996172e+09 1.06996177e+09 1.06996181e+09
 1.06996185e+09 1.06996189e+09 1.06996193e+09 1.06996197e+09
 1.06996202e+09 1.06996206e+09 1.06996210e+09 1.06996214e+09
 1.06996218e+09 1.06996223e+09 1.06996227e+09 1.06996231e+09
 1.06996235e+09 1.06996239e+09 1.06996243e+09 1.06996248e+09
 1.06996252e+09 1.06996256e+09 1.06996260e+09 1.06996264e+09
 1.06996269e+09 1.06996273e+09 1.06996277e+09 1.06996281e+09
 1.06996285e+09 1.06996289e+09 1.06996294e+09 1.06996298e+09
 1.06996302e+09 1.06996306e+09 1.06996310e+09 1.06996314e+09
 1.06996319e+09 1.06996323e+09 1.06996327e+09 1.06996331e+09
 1.06996335e+09 1.06996340e+09 1.06996344e+09 1.06996348e+09
 1.06996352e+09 1.06996356e+09 1.06996360e+09 1.06996365e+09
 1.06996369e+09 1.06996373e+09 1.06996377e+09 1.06996381e+09
 1.06996386e+09 1.06996390e+09 1.06996394e+09 1.06996398e+09
 1.06996402e+09 1.06996406e+09 1.06996411e+09 1.06996415e+09
 1.06996419e+09 1.06996423e+09 1.06996427e+09 1.06996432e+09
 1.06996436e+09 1.06996440e+09 1.06996444e+09 1.06996448e+09
 1.06996452e+09 1.06996457e+09 1.06996461e+09 1.06996465e+09
 1.06996469e+09 1.06996473e+09 1.06996478e+09 1.06996482e+09
 1.06996486e+09 1.06996490e+09 1.06996494e+09 1.06996498e+09
 1.06996503e+09 1.06996507e+09 1.06996511e+09 1.06996515e+09
 1.06996519e+09 1.06996524e+09 1.06996528e+09 1.06996532e+09
 1.06996536e+09 1.06996540e+09 1.06996544e+09 1.06996549e+09
 1.06996553e+09 1.06996557e+09 1.06996561e+09 1.06996565e+09
 1.06996569e+09 1.06996574e+09 1.06996578e+09 1.06996582e+09
 1.06996586e+09 1.06996590e+09 1.06996595e+09 1.06996599e+09
 1.06996603e+09 1.06996607e+09 1.06996611e+09 1.06996615e+09
 1.06996620e+09 1.06996624e+09 1.06996628e+09 1.06996632e+09
 1.06996636e+09 1.06996641e+09 1.06996645e+09 1.06996649e+09
 1.06996653e+09 1.06996657e+09 1.06996661e+09 1.06996666e+09
 1.06996670e+09 1.06996674e+09 1.06996678e+09 1.06996682e+09
 1.06996687e+09 1.06996691e+09 1.06996695e+09 1.06996699e+09
 1.06996703e+09 1.06996707e+09 1.06996712e+09 1.06996716e+09
 1.06996720e+09 1.06996724e+09 1.06996728e+09 1.06996733e+09
 1.06996737e+09 1.06996741e+09 1.06996745e+09 1.06996749e+09
 1.06996753e+09 1.06996758e+09 1.06996762e+09 1.06996766e+09
 1.06996770e+09 1.06996774e+09 1.06996779e+09 1.06996783e+09
 1.06996787e+09 1.06996791e+09 1.06996795e+09 1.06996799e+09
 1.06996804e+09 1.06996808e+09 1.06996812e+09 1.06996816e+09
 1.06996820e+09 1.06996824e+09 1.06996829e+09 1.06996833e+09
 1.06996837e+09 1.06996841e+09 1.06996845e+09 1.06996850e+09
 1.06996854e+09 1.06996858e+09 1.06996862e+09 1.06996866e+09
 1.06996870e+09 1.06996875e+09 1.06996879e+09 1.06996883e+09
 1.06996887e+09 1.06996891e+09 1.06996896e+09 1.06996900e+09
 1.06996904e+09 1.06996908e+09 1.06996912e+09 1.06996916e+09
 1.06996921e+09 1.06996925e+09 1.06996929e+09 1.06996933e+09
 1.06996937e+09 1.06996942e+09 1.06996946e+09 1.06996950e+09
 1.06996954e+09 1.06996958e+09 1.06996962e+09 1.06996967e+09
 1.06996971e+09 1.06996975e+09 1.06996979e+09 1.06996983e+09
 1.06996988e+09 1.06996992e+09 1.06996996e+09 1.06997000e+09
 1.06997004e+09 1.06997008e+09 1.06997013e+09 1.06997017e+09
 1.06997021e+09 1.06997025e+09 1.06997029e+09 1.06997033e+09
 1.06997038e+09 1.06997042e+09 1.06997046e+09 1.06997050e+09
 1.06997054e+09 1.06997059e+09 1.06997063e+09 1.06997067e+09
 1.06997071e+09 1.06997075e+09 1.06997079e+09 1.06997084e+09
 1.06997088e+09 1.06997092e+09 1.06997096e+09 1.06997100e+09
 1.06997105e+09 1.06997109e+09 1.06997113e+09 1.06997117e+09
 1.06997121e+09 1.06997125e+09 1.06997130e+09 1.06997134e+09
 1.06997138e+09 1.06997142e+09 1.06997146e+09 1.06997151e+09
 1.06997155e+09 1.06997159e+09 1.06997163e+09 1.06997167e+09
 1.06997171e+09 1.06997176e+09 1.06997180e+09 1.06997184e+09
 1.06997188e+09 1.06997192e+09 1.06997197e+09 1.06997201e+09
 1.06997205e+09 1.06997209e+09 1.06997213e+09 1.06997217e+09
 1.06997222e+09 1.06997226e+09 1.06997230e+09 1.06997234e+09
 1.06997238e+09 1.06997243e+09 1.06997247e+09 1.06997251e+09
 1.06997255e+09 1.06997259e+09 1.06997263e+09 1.06997268e+09
 1.06997272e+09 1.06997276e+09 1.06997280e+09 1.06997284e+09
 1.06997288e+09 1.06997293e+09 1.06997297e+09 1.06997301e+09
 1.06997305e+09 1.06997309e+09 1.06997314e+09 1.06997318e+09
 1.06997322e+09 1.06997326e+09 1.06997330e+09 1.06997334e+09
 1.06997339e+09 1.06997343e+09 1.06997347e+09 1.06997351e+09
 1.06997355e+09 1.06997360e+09 1.06997364e+09 1.06997368e+09
 1.06997372e+09 1.06997376e+09 1.06997380e+09 1.06997385e+09
 1.06997389e+09 1.06997393e+09 1.06997397e+09 1.06997401e+09
 1.06997406e+09 1.06997410e+09 1.06997414e+09 1.06997418e+09
 1.06997422e+09 1.06997426e+09 1.06997431e+09 1.06997435e+09
 1.06997439e+09 1.06997443e+09 1.06997447e+09 1.06997452e+09
 1.06997456e+09 1.06997460e+09 1.06997464e+09 1.06997468e+09
 1.06997472e+09 1.06997477e+09 1.06997481e+09 1.06997485e+09
 1.06997489e+09 1.06997493e+09 1.06997498e+09 1.06997502e+09
 1.06997506e+09 1.06997510e+09 1.06997514e+09 1.06997518e+09
 1.06997523e+09 1.06997527e+09 1.06997531e+09 1.06997535e+09
 1.06997539e+09 1.06997543e+09 1.06997548e+09 1.06997552e+09
 1.06997556e+09 1.06997560e+09 1.06997564e+09 1.06997569e+09
 1.06997573e+09 1.06997577e+09 1.06997581e+09 1.06997585e+09
 1.06997589e+09 1.06997594e+09 1.06997598e+09 1.06997602e+09
 1.06997606e+09 1.06997610e+09 1.06997615e+09 1.06997619e+09
 1.06997623e+09 1.06997627e+09 1.06997631e+09 1.06997635e+09
 1.06997640e+09 1.06997644e+09 1.06997648e+09 1.06997652e+09
 1.06997656e+09 1.06997661e+09 1.06997665e+09 1.06997669e+09
 1.06997673e+09 1.06997677e+09 1.06997681e+09 1.06997686e+09
 1.06997690e+09 1.06997694e+09 1.06997698e+09 1.06997702e+09
 1.06997707e+09 1.06997711e+09 1.06997715e+09 1.06997719e+09
 1.06997723e+09 1.06997727e+09 1.06997732e+09 1.06997736e+09
 1.06997740e+09 1.06997744e+09 1.06997748e+09 1.06997753e+09
 1.06997757e+09 1.06997761e+09 1.06997765e+09 1.06997769e+09
 1.06997773e+09 1.06997778e+09 1.06997782e+09 1.06997786e+09
 1.06997790e+09 1.06997794e+09 1.06997798e+09 1.06997803e+09
 1.06997807e+09 1.06997811e+09 1.06997815e+09 1.06997819e+09
 1.06997824e+09 1.06997828e+09 1.06997832e+09 1.06997836e+09
 1.06997840e+09 1.06997844e+09 1.06997849e+09 1.06997853e+09
 1.06997857e+09 1.06997861e+09 1.06997865e+09 1.06997870e+09
 1.06997874e+09 1.06997878e+09 1.06997882e+09 1.06997886e+09
 1.06997890e+09 1.06997895e+09 1.06997899e+09 1.06997903e+09
 1.06997907e+09 1.06997911e+09 1.06997916e+09 1.06997920e+09
 1.06997924e+09 1.06997928e+09 1.06997932e+09 1.06997936e+09
 1.06997941e+09 1.06997945e+09 1.06997949e+09 1.06997953e+09
 1.06997957e+09 1.06997962e+09 1.06997966e+09 1.06997970e+09
 1.06997974e+09 1.06997978e+09 1.06997982e+09 1.06997987e+09
 1.06997991e+09 1.06997995e+09 1.06997999e+09 1.06998003e+09
 1.06998008e+09 1.06998012e+09 1.06998016e+09 1.06998020e+09
 1.06998024e+09 1.06998028e+09 1.06998033e+09 1.06998037e+09
 1.06998041e+09 1.06998045e+09 1.06998049e+09 1.06998053e+09
 1.06998058e+09 1.06998062e+09 1.06998066e+09 1.06998070e+09
 1.06998074e+09 1.06998079e+09 1.06998083e+09 1.06998087e+09
 1.06998091e+09 1.06998095e+09 1.06998099e+09 1.06998104e+09
 1.06998108e+09 1.06998112e+09 1.06998116e+09 1.06998120e+09
 1.06998125e+09 1.06998129e+09 1.06998133e+09 1.06998137e+09
 1.06998141e+09 1.06998145e+09 1.06998150e+09 1.06998154e+09
 1.06998158e+09 1.06998162e+09 1.06998166e+09 1.06998171e+09
 1.06998175e+09 1.06998179e+09 1.06998183e+09 1.06998187e+09
 1.06998191e+09 1.06998196e+09 1.06998200e+09 1.06998204e+09
 1.06998208e+09 1.06998212e+09 1.06998217e+09 1.06998221e+09
 1.06998225e+09 1.06998229e+09 1.06998233e+09 1.06998237e+09
