name =JUICE_ROI_GAN_3_0_07
flyby = ['2034 SEP 28 18:48:51', '2034 SEP 29 18:48:51']
Observation TW = <SpiceCell dtype = 1, length = 0, size = 3600, card = 16, is_set = 1, adjust = 0, init = 1, base = 94055565712080, data = 94055565712128>
Res(t) = [1.08987852 1.08949846 1.0891204  1.08874434 1.08837029 1.08799824
 1.08762819 1.08726015 1.08689411 1.08653007 1.08616804 1.08580801
 1.08544998 1.08509396 1.08473994 1.08438792 1.0840379  1.08368989
 1.08334388 1.08299987 1.08265786 1.08231786 1.08197985 1.08164385
 1.08130985 1.08097785 1.08064785 1.08031985 1.07999385 1.07966985
 1.07934786 1.07902786 1.07870986 1.07839386 1.07807985 1.07776785
 1.07745784 1.07714984 1.07684383 1.07653981 1.0762378  1.07593778
 1.07563975 1.07534372 1.07504969 1.07475765 1.07446761 1.07417956
 1.0738935  1.07360944 1.07332737 1.0730473  1.07276921 1.07249312
 1.07221902 1.0719469  1.07167678 1.07140865 1.07114251 1.07087835
 1.07061618 1.070356   1.07009781 1.06984161 1.06958739 1.06933515
 1.0690849  1.06883663 1.06859035 1.06834605 1.06810373 1.0678634
 1.06762504 1.06738867 1.06715427 1.06692186 1.06669142 1.06646296
 1.06623647 1.06601196 1.06578943 1.06556888 1.06535029 1.06513368
 1.06491904 1.06470638 1.06449568 1.06428696 1.0640802  1.06387541
 1.06367259 1.06347174 1.06327285 1.06307593 1.06288098 1.06268798
 1.06249695 1.06230788 1.06212077 1.06193562 1.06175243 1.0615712
 1.06139193 1.06121461 1.06103925 1.06086584 1.06069438 1.06052488
 1.06035733 1.06019172 1.06002807 1.05986637 1.05970661 1.0595488
 1.05939293 1.05923901 1.05908703 1.05893699 1.05878889 1.05864273
 1.05849852 1.05835623 1.05821589 1.05807748 1.057941   1.05780646
 1.05767384 1.05754316 1.05741441 1.05728758 1.05716268 1.05703971
 1.05691866 1.05679954 1.05668233 1.05656705 1.05645368 1.05634224
 1.05623271 1.05612509 1.05601939 1.0559156  1.05581372 1.05571375
 1.05561569 1.05551954 1.05542529 1.05533295 1.05524251 1.05515397
 1.05506733 1.0549826  1.05489975 1.0548188  1.05473975 1.05466259
 1.05458732 1.05451394 1.05444245 1.05437285 1.05430513 1.05423929
 1.05417534 1.05411326 1.05405307 1.05399475 1.05393831 1.05388374
 1.05383105 1.05378022 1.05373127 1.05368418 1.05363895 1.0535956
 1.0535541  1.05351447 1.05347669 1.05344077 1.05340671 1.0533745
 1.05334414 1.05331564 1.05328898 1.05326417 1.0532412  1.05322008
 1.0532008  1.05318336 1.05316776 1.05315399 1.05314206 1.05313195
 1.05312368 1.05311724 1.05311263 1.05310984 1.05310887 1.05310972
 1.05311239 1.05311688 1.05312319 1.05313131 1.05314123 1.05315297
 1.05316652 1.05318187 1.05319902 1.05321798 1.05323873 1.05326128
 1.05328563 1.05331177 1.0533397  1.05336942 1.05340092 1.05343421
 1.05346929 1.05350614 1.05354477 1.05358518 1.05362736 1.05367132
 1.05371704 1.05376453 1.05381379 1.05386481 1.05391759 1.05397212
 1.05402842 1.05408647 1.05414627 1.05420782 1.05427112 1.05433617
 1.05440295 1.05447148 1.05454175 1.05461375 1.05468748 1.05476295
 1.05484015 1.05491907 1.05499971 1.05508208 1.05516617 1.05525198
 1.05533949 1.05542873 1.05551967 1.05561232 1.05570667 1.05580273
 1.05590049 1.05599994 1.05610109 1.05620393 1.05630846 1.05641468
 1.05652259 1.05663218 1.05674345 1.05685639 1.05697101 1.0570873
 1.05720527 1.0573249  1.05744619 1.05756915 1.05769377 1.05782004
 1.05794797 1.05807755 1.05820877 1.05834165 1.05847617 1.05861233
 1.05875012 1.05888956 1.05903062 1.05917332 1.05931765 1.05946359
 1.05961117 1.05976036 1.05991116 1.06006359 1.06021762 1.06037326
 1.06053051 1.06068935 1.0608498  1.06101185 1.06117549 1.06134072
 1.06150755 1.06167595 1.06184594 1.06201751 1.06219066 1.06236538
 1.06254168 1.06271954 1.06289897 1.06307996 1.06326251 1.06344662
 1.06363228 1.0638195  1.06400826 1.06419857 1.06439042 1.06458381
 1.06477874 1.0649752  1.06517319 1.0653727  1.06557375 1.06577631
 1.06598039 1.06618599 1.0663931  1.06660172 1.06681185 1.06702348
 1.06723661 1.06745124 1.06766736 1.06788497 1.06810407 1.06832466
 1.06854673 1.06877027 1.06899529 1.06922179 1.06944975 1.06967918
 1.06991007 1.07014243 1.07037624 1.0706115  1.07084821 1.07108637
 1.07132598 1.07156702 1.0718095  1.07205342 1.07229877 1.07254555
 1.07279375 1.07304337 1.07329441 1.07354687 1.07380074 1.07405601
 1.0743127  1.07457078 1.07483026 1.07509114 1.07535341 1.07561707
 1.07588212 1.07614855 1.07641635 1.07668554 1.07695609 1.07722802
 1.07750131 1.07777596 1.07805197 1.07832934 1.07860806 1.07888813
 1.07916954 1.0794523  1.07973639 1.08002182 1.08030859 1.08059668
 1.0808861  1.08117684 1.0814689  1.08176227 1.08205695 1.08235295
 1.08265025 1.08294884 1.08324874 1.08354993 1.08385242 1.08415619
 1.08446125 1.08476758 1.08507519 1.08538408 1.08569424 1.08600566
 1.08631835 1.0866323  1.08694751 1.08726396 1.08758167 1.08790062
 1.08822082 1.08854225 1.08886492 1.08918882 1.08951395 1.08984031
 1.09016788 1.09049668 1.09082668 1.0911579  1.09149033 1.09182396
 1.09215879 1.09249481 1.09283203 1.09317044 1.09351003 1.09385081
 1.09419277 1.0945359  1.0948802  1.09522567 1.0955723  1.09592009
 1.09626904 1.09661915 1.0969704  1.0973228  1.09767635 1.09803103
 1.09838685 1.0987438  1.09910188 1.09946108 1.0998214  1.10018284
 1.1005454  1.10090906 1.10127383 1.10163971 1.10200668 1.10237475
 1.10274391 1.10311416 1.10348549 1.1038579  1.1042314  1.10460596
 1.1049816  1.1053583  1.10573606 1.10611488 1.10649476 1.10687569
 1.10725767 1.10764069 1.10802475 1.10840985 1.10879598 1.10918315
 1.10957133 1.10996054 1.11035077 1.11074202 1.11113427 1.11152753
 1.1119218  1.11231706 1.11271332 1.11311058 1.11350882 1.11390805
 1.11430826 1.11470945 1.11511161 1.11551474 1.11591884 1.11632391
 1.11672993 1.11713691 1.11754483 1.11795371 1.11836353 1.1187743
 1.119186   1.11959863 1.12001219 1.12042668 1.12084209 1.12125842
 1.12167567 1.12209382 1.12251288 1.12293285 1.12335372 1.12377548
 1.12419813 1.12462168 1.12504611 1.12547142 1.1258976  1.12632467
 1.1267526  1.1271814  1.12761106 1.12804158 1.12847295 1.12890518
 1.12933826 1.12977218 1.13020694 1.13064253 1.13107896 1.13151622
 1.13195431 1.13239322 1.13283294 1.13327348 1.13371483 1.13415699
 1.13459995 1.13504371 1.13548827 1.13593362 1.13637975 1.13682668
 1.13727438 1.13772286 1.13817212 1.13862214 1.13907293 1.13952449
 1.1399768  1.14042987 1.14088369 1.14133826 1.14179357 1.14224962
 1.14270641 1.14316394 1.14362219 1.14408117 1.14454087 1.14500129
 1.14546242 1.14592427 1.14638682 1.14685007 1.14731403 1.14777868
 1.14824403 1.14871006 1.14917678 1.14964419 1.15011227 1.15058102
 1.15105045 1.15152054 1.1519913  1.15246271 1.15293479 1.15340751
 1.15388088 1.1543549  1.15482957 1.15530487 1.1557808  1.15625736
 1.15673456 1.15721237 1.15769081 1.15816986 1.15864952 1.1591298
 1.15961068 1.16009216 1.16057424 1.16105691 1.16154018 1.16202403
 1.16250847 1.16299349 1.16347908 1.16396525 1.16445198 1.16493929
 1.16542715 1.16591558 1.16640456 1.16689409 1.16738417 1.16787479
 1.16836596 1.16885766 1.1693499  1.16984267 1.17033596 1.17082978
 1.17132412 1.17181898 1.17231434 1.17281022 1.1733066  1.17380349
 1.17430087 1.17479875 1.17529712 1.17579598 1.17629533 1.17679515
 1.17729546 1.17779624 1.17829749 1.1787992  1.17930138 1.17980402
 1.18030712 1.18081067 1.18131467 1.18181912 1.18232402 1.18282935
 1.18333511 1.18384132 1.18434795 1.184855   1.18536248 1.18587038
 1.1863787  1.18688742 1.18739656 1.1879061  1.18841604 1.18892639
 1.18943713 1.18994826 1.19045978 1.19097168 1.19148397 1.19199663
 1.19250968 1.19302309 1.19353687 1.19405102 1.19456553 1.1950804
 1.19559562 1.19611119 1.19662712 1.19714339 1.19766    1.19817695
 1.19869424 1.19921185 1.1997298  1.20024807 1.20076667 1.20128558
 1.20180482 1.20232436 1.20284421 1.20336437 1.20388483 1.20440559
 1.20492665 1.205448   1.20596964 1.20649157 1.20701378 1.20753627
 1.20805904 1.20858209 1.2091054  1.20962898 1.21015283 1.21067694
 1.2112013  1.21172592 1.21225079 1.21277591 1.21330128 1.21382689
 1.21435274 1.21487882 1.21540514 1.21593169 1.21645846 1.21698546
 1.21751268 1.21804012 1.21856777 1.21909563 1.2196237  1.22015198
 1.22068045 1.22120913 1.22173801 1.22226707 1.22279633 1.22332577
 1.2238554  1.22438521 1.2249152  1.22544536 1.22597569 1.22650619
 1.22703686 1.22756769 1.22809869 1.22862984 1.22916114 1.22969259
 1.2302242  1.23075594 1.23128783 1.23181986 1.23235203 1.23288433
 1.23341676 1.23394932 1.234482   1.23501481 1.23554773 1.23608077
 1.23661393 1.23714719 1.23768056 1.23821404 1.23874762 1.2392813
 1.23981507 1.24034894 1.2408829  1.24141695 1.24195108 1.24248529
 1.24301959 1.24355396 1.2440884  1.24462292 1.2451575  1.24569215
 1.24622686 1.24676164 1.24729647 1.24783135 1.24836629 1.24890127
 1.24943631 1.24997138 1.2505065  1.25104166 1.25157685 1.25211207
 1.25264733 1.25318261 1.25371792 1.25425325 1.2547886  1.25532397
 1.25585935 1.25639475 1.25693015 1.25746556 1.25800098 1.25853639
 1.25907181 1.25960722 1.26014263 1.26067802 1.26121341 1.26174878
 1.26228413 1.26281947 1.26335479 1.26389008 1.26442534 1.26496058
 1.26549578 1.26603095 1.26656608 1.26710118 1.26763623 1.26817124
 1.26870621 1.26924112 1.26977598 1.27031079 1.27084555 1.27138024
 1.27191487 1.27244944 1.27298395 1.27351839 1.27405275 1.27458705
 1.27512126 1.2756554  1.27618947 1.27672344 1.27725734 1.27779114
 1.27832486 1.27885849 1.27939202 1.27992545 1.28045879 1.28099203
 1.28152516 1.28205819 1.28259111 1.28312392 1.28365662 1.2841892
 1.28472167 1.28525401 1.28578624 1.28631834 1.28685032 1.28738217
 1.28791389 1.28844548 1.28897693 1.28950825 1.29003943 1.29057047
 1.29110136 1.29163211 1.29216271 1.29269316 1.29322347 1.29375361
 1.29428361 1.29481344 1.29534311 1.29587263 1.29640198 1.29693116
 1.29746017 1.29798901 1.29851769 1.29904618 1.2995745  1.30010265
 1.30063061 1.30115839 1.30168598 1.30221339 1.30274061 1.30326764
 1.30379448 1.30432112 1.30484756 1.30537381 1.30589986 1.30642571
 1.30695135 1.30747678 1.30800201 1.30852703 1.30905184 1.30957643
 1.3101008  1.31062496 1.3111489  1.31167262 1.31219612 1.31271939
 1.31324244 1.31376525 1.31428784 1.31481019 1.31533231 1.31585419
 1.31637584 1.31689725 1.31741841 1.31793934 1.31846002 1.31898045
 1.31950063 1.32002056 1.32054025 1.32105967 1.32157885 1.32209776
 1.32261642 1.32313482 1.32365296 1.32417083 1.32468843 1.32520577
 1.32572284 1.32623965 1.32675617 1.32727243 1.32778841 1.32830411
 1.32881954 1.32933468 1.32984954 1.33036412 1.33087842 1.33139242
 1.33190614 1.33241957 1.33293271 1.33344556 1.33395811 1.33447037
 1.33498233 1.33549399 1.33600534 1.3365164  1.33702716 1.3375376
 1.33804775 1.33855758 1.33906711 1.33957632 1.34008522 1.34059381
 1.34110208 1.34161004 1.34211768 1.34262499 1.34313199 1.34363867
 1.34414502 1.34465104 1.34515674 1.34566212 1.34616716 1.34667187
 1.34717625 1.34768029 1.34818401 1.34868738 1.34919042 1.34969312
 1.35019548 1.35069749 1.35119917 1.3517005  1.35220149 1.35270213
 1.35320242 1.35370236 1.35420195 1.35470119 1.35520008 1.35569861
 1.35619679 1.35669461 1.35719207 1.35768918 1.35818592 1.35868231
 1.35917833 1.35967398 1.36016927 1.3606642  1.36115876 1.36165295
 1.36214677 1.36264022 1.36313329 1.363626   1.36411833 1.36461028
 1.36510186 1.36559306 1.36608389 1.36657433 1.36706439 1.36755407
 1.36804337 1.36853228 1.36902081 1.36950896 1.36999671 1.37048408
 1.37097106 1.37145765 1.37194384 1.37242965 1.37291506 1.37340008
 1.3738847  1.37436893 1.37485275 1.37533619 1.37581922 1.37630185
 1.37678408 1.37726591 1.37774734 1.37822836]
t = [1.09637865e+09 1.09637871e+09 1.09637877e+09 1.09637884e+09
 1.09637890e+09 1.09637896e+09 1.09637902e+09 1.09637908e+09
 1.09637915e+09 1.09637921e+09 1.09637927e+09 1.09637933e+09
 1.09637939e+09 1.09637946e+09 1.09637952e+09 1.09637958e+09
 1.09637964e+09 1.09637970e+09 1.09637977e+09 1.09637983e+09
 1.09637989e+09 1.09637995e+09 1.09638001e+09 1.09638008e+09
 1.09638014e+09 1.09638020e+09 1.09638026e+09 1.09638032e+09
 1.09638039e+09 1.09638045e+09 1.09638051e+09 1.09638057e+09
 1.09638063e+09 1.09638070e+09 1.09638076e+09 1.09638082e+09
 1.09638088e+09 1.09638094e+09 1.09638101e+09 1.09638107e+09
 1.09638113e+09 1.09638119e+09 1.09638125e+09 1.09638132e+09
 1.09638138e+09 1.09638144e+09 1.09638150e+09 1.09638156e+09
 1.09638163e+09 1.09638169e+09 1.09638175e+09 1.09638181e+09
 1.09638187e+09 1.09638194e+09 1.09638200e+09 1.09638206e+09
 1.09638212e+09 1.09638218e+09 1.09638225e+09 1.09638231e+09
 1.09638237e+09 1.09638243e+09 1.09638249e+09 1.09638256e+09
 1.09638262e+09 1.09638268e+09 1.09638274e+09 1.09638280e+09
 1.09638287e+09 1.09638293e+09 1.09638299e+09 1.09638305e+09
 1.09638312e+09 1.09638318e+09 1.09638324e+09 1.09638330e+09
 1.09638336e+09 1.09638343e+09 1.09638349e+09 1.09638355e+09
 1.09638361e+09 1.09638367e+09 1.09638374e+09 1.09638380e+09
 1.09638386e+09 1.09638392e+09 1.09638398e+09 1.09638405e+09
 1.09638411e+09 1.09638417e+09 1.09638423e+09 1.09638429e+09
 1.09638436e+09 1.09638442e+09 1.09638448e+09 1.09638454e+09
 1.09638460e+09 1.09638467e+09 1.09638473e+09 1.09638479e+09
 1.09638485e+09 1.09638491e+09 1.09638498e+09 1.09638504e+09
 1.09638510e+09 1.09638516e+09 1.09638522e+09 1.09638529e+09
 1.09638535e+09 1.09638541e+09 1.09638547e+09 1.09638553e+09
 1.09638560e+09 1.09638566e+09 1.09638572e+09 1.09638578e+09
 1.09638584e+09 1.09638591e+09 1.09638597e+09 1.09638603e+09
 1.09638609e+09 1.09638615e+09 1.09638622e+09 1.09638628e+09
 1.09638634e+09 1.09638640e+09 1.09638646e+09 1.09638653e+09
 1.09638659e+09 1.09638665e+09 1.09638671e+09 1.09638677e+09
 1.09638684e+09 1.09638690e+09 1.09638696e+09 1.09638702e+09
 1.09638708e+09 1.09638715e+09 1.09638721e+09 1.09638727e+09
 1.09638733e+09 1.09638739e+09 1.09638746e+09 1.09638752e+09
 1.09638758e+09 1.09638764e+09 1.09638770e+09 1.09638777e+09
 1.09638783e+09 1.09638789e+09 1.09638795e+09 1.09638801e+09
 1.09638808e+09 1.09638814e+09 1.09638820e+09 1.09638826e+09
 1.09638832e+09 1.09638839e+09 1.09638845e+09 1.09638851e+09
 1.09638857e+09 1.09638863e+09 1.09638870e+09 1.09638876e+09
 1.09638882e+09 1.09638888e+09 1.09638894e+09 1.09638901e+09
 1.09638907e+09 1.09638913e+09 1.09638919e+09 1.09638925e+09
 1.09638932e+09 1.09638938e+09 1.09638944e+09 1.09638950e+09
 1.09638956e+09 1.09638963e+09 1.09638969e+09 1.09638975e+09
 1.09638981e+09 1.09638987e+09 1.09638994e+09 1.09639000e+09
 1.09639006e+09 1.09639012e+09 1.09639018e+09 1.09639025e+09
 1.09639031e+09 1.09639037e+09 1.09639043e+09 1.09639049e+09
 1.09639056e+09 1.09639062e+09 1.09639068e+09 1.09639074e+09
 1.09639080e+09 1.09639087e+09 1.09639093e+09 1.09639099e+09
 1.09639105e+09 1.09639111e+09 1.09639118e+09 1.09639124e+09
 1.09639130e+09 1.09639136e+09 1.09639142e+09 1.09639149e+09
 1.09639155e+09 1.09639161e+09 1.09639167e+09 1.09639173e+09
 1.09639180e+09 1.09639186e+09 1.09639192e+09 1.09639198e+09
 1.09639204e+09 1.09639211e+09 1.09639217e+09 1.09639223e+09
 1.09639229e+09 1.09639235e+09 1.09639242e+09 1.09639248e+09
 1.09639254e+09 1.09639260e+09 1.09639266e+09 1.09639273e+09
 1.09639279e+09 1.09639285e+09 1.09639291e+09 1.09639297e+09
 1.09639304e+09 1.09639310e+09 1.09639316e+09 1.09639322e+09
 1.09639329e+09 1.09639335e+09 1.09639341e+09 1.09639347e+09
 1.09639353e+09 1.09639360e+09 1.09639366e+09 1.09639372e+09
 1.09639378e+09 1.09639384e+09 1.09639391e+09 1.09639397e+09
 1.09639403e+09 1.09639409e+09 1.09639415e+09 1.09639422e+09
 1.09639428e+09 1.09639434e+09 1.09639440e+09 1.09639446e+09
 1.09639453e+09 1.09639459e+09 1.09639465e+09 1.09639471e+09
 1.09639477e+09 1.09639484e+09 1.09639490e+09 1.09639496e+09
 1.09639502e+09 1.09639508e+09 1.09639515e+09 1.09639521e+09
 1.09639527e+09 1.09639533e+09 1.09639539e+09 1.09639546e+09
 1.09639552e+09 1.09639558e+09 1.09639564e+09 1.09639570e+09
 1.09639577e+09 1.09639583e+09 1.09639589e+09 1.09639595e+09
 1.09639601e+09 1.09639608e+09 1.09639614e+09 1.09639620e+09
 1.09639626e+09 1.09639632e+09 1.09639639e+09 1.09639645e+09
 1.09639651e+09 1.09639657e+09 1.09639663e+09 1.09639670e+09
 1.09639676e+09 1.09639682e+09 1.09639688e+09 1.09639694e+09
 1.09639701e+09 1.09639707e+09 1.09639713e+09 1.09639719e+09
 1.09639725e+09 1.09639732e+09 1.09639738e+09 1.09639744e+09
 1.09639750e+09 1.09639756e+09 1.09639763e+09 1.09639769e+09
 1.09639775e+09 1.09639781e+09 1.09639787e+09 1.09639794e+09
 1.09639800e+09 1.09639806e+09 1.09639812e+09 1.09639818e+09
 1.09639825e+09 1.09639831e+09 1.09639837e+09 1.09639843e+09
 1.09639849e+09 1.09639856e+09 1.09639862e+09 1.09639868e+09
 1.09639874e+09 1.09639880e+09 1.09639887e+09 1.09639893e+09
 1.09639899e+09 1.09639905e+09 1.09639911e+09 1.09639918e+09
 1.09639924e+09 1.09639930e+09 1.09639936e+09 1.09639942e+09
 1.09639949e+09 1.09639955e+09 1.09639961e+09 1.09639967e+09
 1.09639973e+09 1.09639980e+09 1.09639986e+09 1.09639992e+09
 1.09639998e+09 1.09640004e+09 1.09640011e+09 1.09640017e+09
 1.09640023e+09 1.09640029e+09 1.09640035e+09 1.09640042e+09
 1.09640048e+09 1.09640054e+09 1.09640060e+09 1.09640066e+09
 1.09640073e+09 1.09640079e+09 1.09640085e+09 1.09640091e+09
 1.09640097e+09 1.09640104e+09 1.09640110e+09 1.09640116e+09
 1.09640122e+09 1.09640128e+09 1.09640135e+09 1.09640141e+09
 1.09640147e+09 1.09640153e+09 1.09640159e+09 1.09640166e+09
 1.09640172e+09 1.09640178e+09 1.09640184e+09 1.09640190e+09
 1.09640197e+09 1.09640203e+09 1.09640209e+09 1.09640215e+09
 1.09640221e+09 1.09640228e+09 1.09640234e+09 1.09640240e+09
 1.09640246e+09 1.09640252e+09 1.09640259e+09 1.09640265e+09
 1.09640271e+09 1.09640277e+09 1.09640283e+09 1.09640290e+09
 1.09640296e+09 1.09640302e+09 1.09640308e+09 1.09640314e+09
 1.09640321e+09 1.09640327e+09 1.09640333e+09 1.09640339e+09
 1.09640345e+09 1.09640352e+09 1.09640358e+09 1.09640364e+09
 1.09640370e+09 1.09640377e+09 1.09640383e+09 1.09640389e+09
 1.09640395e+09 1.09640401e+09 1.09640408e+09 1.09640414e+09
 1.09640420e+09 1.09640426e+09 1.09640432e+09 1.09640439e+09
 1.09640445e+09 1.09640451e+09 1.09640457e+09 1.09640463e+09
 1.09640470e+09 1.09640476e+09 1.09640482e+09 1.09640488e+09
 1.09640494e+09 1.09640501e+09 1.09640507e+09 1.09640513e+09
 1.09640519e+09 1.09640525e+09 1.09640532e+09 1.09640538e+09
 1.09640544e+09 1.09640550e+09 1.09640556e+09 1.09640563e+09
 1.09640569e+09 1.09640575e+09 1.09640581e+09 1.09640587e+09
 1.09640594e+09 1.09640600e+09 1.09640606e+09 1.09640612e+09
 1.09640618e+09 1.09640625e+09 1.09640631e+09 1.09640637e+09
 1.09640643e+09 1.09640649e+09 1.09640656e+09 1.09640662e+09
 1.09640668e+09 1.09640674e+09 1.09640680e+09 1.09640687e+09
 1.09640693e+09 1.09640699e+09 1.09640705e+09 1.09640711e+09
 1.09640718e+09 1.09640724e+09 1.09640730e+09 1.09640736e+09
 1.09640742e+09 1.09640749e+09 1.09640755e+09 1.09640761e+09
 1.09640767e+09 1.09640773e+09 1.09640780e+09 1.09640786e+09
 1.09640792e+09 1.09640798e+09 1.09640804e+09 1.09640811e+09
 1.09640817e+09 1.09640823e+09 1.09640829e+09 1.09640835e+09
 1.09640842e+09 1.09640848e+09 1.09640854e+09 1.09640860e+09
 1.09640866e+09 1.09640873e+09 1.09640879e+09 1.09640885e+09
 1.09640891e+09 1.09640897e+09 1.09640904e+09 1.09640910e+09
 1.09640916e+09 1.09640922e+09 1.09640928e+09 1.09640935e+09
 1.09640941e+09 1.09640947e+09 1.09640953e+09 1.09640959e+09
 1.09640966e+09 1.09640972e+09 1.09640978e+09 1.09640984e+09
 1.09640990e+09 1.09640997e+09 1.09641003e+09 1.09641009e+09
 1.09641015e+09 1.09641021e+09 1.09641028e+09 1.09641034e+09
 1.09641040e+09 1.09641046e+09 1.09641052e+09 1.09641059e+09
 1.09641065e+09 1.09641071e+09 1.09641077e+09 1.09641083e+09
 1.09641090e+09 1.09641096e+09 1.09641102e+09 1.09641108e+09
 1.09641114e+09 1.09641121e+09 1.09641127e+09 1.09641133e+09
 1.09641139e+09 1.09641145e+09 1.09641152e+09 1.09641158e+09
 1.09641164e+09 1.09641170e+09 1.09641176e+09 1.09641183e+09
 1.09641189e+09 1.09641195e+09 1.09641201e+09 1.09641207e+09
 1.09641214e+09 1.09641220e+09 1.09641226e+09 1.09641232e+09
 1.09641238e+09 1.09641245e+09 1.09641251e+09 1.09641257e+09
 1.09641263e+09 1.09641269e+09 1.09641276e+09 1.09641282e+09
 1.09641288e+09 1.09641294e+09 1.09641300e+09 1.09641307e+09
 1.09641313e+09 1.09641319e+09 1.09641325e+09 1.09641331e+09
