name =JUICE_ROI_GAN_4_7_02
flyby = ['2034 SEP 07 06:03:51', '2034 SEP 08 06:03:51']
Observation TW = <SpiceCell dtype = 1, length = 0, size = 3200, card = 12, is_set = 1, adjust = 0, init = 1, base = 94275998147472, data = 94275998147520>
Res(t) = [2.52385719 2.52009067 2.51632545 2.51256155 2.508799   2.50503783
 2.50127805 2.49751969 2.49376279 2.49000735 2.48625341 2.482501
 2.47875014 2.47500085 2.47125316 2.46750711 2.4637627  2.46001997
 2.45627894 2.45253965 2.44880211 2.44506636 2.44133241 2.4376003
 2.43387005 2.43014169 2.42641525 2.42269075 2.41896821 2.41524768
 2.41152916 2.40781269 2.40409831 2.40038602 2.39667586 2.39296787
 2.38926205 2.38555845 2.38185709 2.378158   2.37446121 2.37076673
 2.36707461 2.36338486 2.35969752 2.35601261 2.35233016 2.34865021
 2.34497277 2.34129787 2.33762555 2.33395583 2.33028874 2.32662431
 2.32296256 2.31930353 2.31564724 2.31199371 2.30834299 2.3046951
 2.30105006 2.29740791 2.29376867 2.29013237 2.28649904 2.28286871
 2.27924141 2.27561716 2.27199599 2.26837795 2.26476304 2.2611513
 2.25754277 2.25393746 2.25033541 2.24673664 2.24314119 2.23954908
 2.23596035 2.23237502 2.22879311 2.22521467 2.22163971 2.21806827
 2.21450038 2.21093606 2.20737535 2.20381826 2.20026484 2.19671511
 2.1931691  2.18962684 2.18608835 2.18255367 2.17902282 2.17549584
 2.17197275 2.16845358 2.16493836 2.16142712 2.15791989 2.15441669
 2.15091756 2.14742253 2.14393161 2.14044485 2.13696227 2.13348389
 2.13000975 2.12653988 2.1230743  2.11961305 2.11615614 2.11270362
 2.1092555  2.10581182 2.1023726  2.09893788 2.09550768 2.09208203
 2.08866095 2.08524448 2.08183265 2.07842548 2.07502299 2.07162523
 2.06823221 2.06484396 2.06146051 2.0580819  2.05470814 2.05133926
 2.0479753  2.04461627 2.04126221 2.03791315 2.0345691  2.03123011
 2.02789619 2.02456737 2.02124368 2.01792515 2.0146118  2.01130366
 2.00800076 2.00470312 2.00141077 1.99812374 1.99484206 1.99156574
 1.98829481 1.98502931 1.98176926 1.97851468 1.9752656  1.97202204
 1.96878404 1.96555162 1.96232479 1.9591036  1.95588805 1.95267819
 1.94947403 1.9462756  1.94308292 1.93989602 1.93671493 1.93353966
 1.93037025 1.92720671 1.92404908 1.92089737 1.91775161 1.91461183
 1.91147804 1.90835028 1.90522856 1.90211291 1.89900335 1.89589991
 1.89280261 1.88971147 1.88662652 1.88354778 1.88047526 1.87740901
 1.87434903 1.87129534 1.86824798 1.86520697 1.86217231 1.85914405
 1.8561222  1.85310678 1.85009781 1.84709531 1.84409931 1.84110983
 1.83812689 1.8351505  1.8321807  1.82921749 1.82626091 1.82331097
 1.82036768 1.81743108 1.81450119 1.81157801 1.80866158 1.8057519
 1.80284901 1.79995292 1.79706364 1.7941812  1.79130562 1.78843692
 1.78557511 1.78272021 1.77987224 1.77703122 1.77419717 1.77137011
 1.76855004 1.765737   1.762931   1.76013205 1.75734017 1.75455538
 1.75177769 1.74900713 1.74624371 1.74348745 1.74073835 1.73799645
 1.73526175 1.73253427 1.72981402 1.72710102 1.7243953  1.72169685
 1.7190057  1.71632186 1.71364534 1.71097617 1.70831435 1.7056599
 1.70301284 1.70037317 1.69774091 1.69511608 1.69249868 1.68988874
 1.68728626 1.68469126 1.68210375 1.67952375 1.67695125 1.67438629
 1.67182887 1.669279   1.66673669 1.66420196 1.66167482 1.65915527
 1.65664334 1.65413903 1.65164235 1.64915331 1.64667193 1.64419821
 1.64173216 1.6392738  1.63682313 1.63438017 1.63194492 1.6295174
 1.6270976  1.62468555 1.62228125 1.61988471 1.61749594 1.61511494
 1.61274174 1.61037632 1.60801871 1.6056689  1.60332691 1.60099275
 1.59866642 1.59634793 1.59403728 1.59173449 1.58943956 1.58715249
 1.58487331 1.58260199 1.58033857 1.57808304 1.5758354  1.57359567
 1.57136384 1.56913994 1.56692395 1.56471588 1.56251575 1.56032354
 1.55813928 1.55596296 1.55379459 1.55163417 1.54948171 1.5473372
 1.54520066 1.54307209 1.54095148 1.53883885 1.5367342  1.53463752
 1.53254883 1.53046812 1.52839539 1.52633066 1.52427392 1.52222517
 1.52018442 1.51815167 1.51612691 1.51411015 1.5121014  1.51010065
 1.5081079  1.50612315 1.50414642 1.50217768 1.50021696 1.49826424
 1.49631952 1.49438281 1.49245411 1.49053342 1.48862073 1.48671604
 1.48481936 1.48293069 1.48105001 1.47917734 1.47731266 1.47545599
 1.47360731 1.47176663 1.46993394 1.46810924 1.46629253 1.46448381
 1.46268308 1.46089032 1.45910555 1.45732875 1.45555993 1.45379908
 1.45204619 1.45030128 1.44856432 1.44683532 1.44511427 1.44340118
 1.44169603 1.43999882 1.43830956 1.43662822 1.43495482 1.43328934
 1.43163178 1.42998214 1.42834041 1.42670658 1.42508065 1.42346262
 1.42185248 1.42025023 1.41865585 1.41706935 1.41549071 1.41391994
 1.41235702 1.41080195 1.40925472 1.40771533 1.40618377 1.40466004
 1.40314412 1.40163601 1.4001357  1.39864319 1.39715847 1.39568153
 1.39421237 1.39275097 1.39129733 1.38985144 1.3884133  1.38698289
 1.38556021 1.38414525 1.382738   1.38133845 1.3799466  1.37856244
 1.37718595 1.37581714 1.37445598 1.37310248 1.37175661 1.37041839
 1.36908778 1.36776479 1.36644941 1.36514163 1.36384143 1.36254881
 1.36126375 1.35998626 1.35871631 1.3574539  1.35619902 1.35495166
 1.35371181 1.35247945 1.35125458 1.35003719 1.34882726 1.34762479
 1.34642977 1.34524218 1.34406201 1.34288926 1.34172391 1.34056595
 1.33941537 1.33827215 1.3371363  1.33600779 1.33488661 1.33377276
 1.33266622 1.33156698 1.33047502 1.32939034 1.32831293 1.32724277
 1.32617985 1.32512416 1.32407568 1.32303441 1.32200033 1.32097343
 1.3199537  1.31894112 1.31793569 1.31693738 1.31594619 1.31496211
 1.31398512 1.31301521 1.31205236 1.31109657 1.31014782 1.3092061
 1.30827139 1.30734368 1.30642296 1.30550922 1.30460243 1.3037026
 1.3028097  1.30192373 1.30104466 1.30017248 1.29930719 1.29844877
 1.2975972  1.29675247 1.29591457 1.29508348 1.29425919 1.29344169
 1.29263095 1.29182698 1.29102975 1.29023925 1.28945546 1.28867838
 1.28790798 1.28714426 1.28638719 1.28563677 1.28489298 1.28415581
 1.28342524 1.28270126 1.28198385 1.281273   1.28056869 1.27987092
 1.27917966 1.2784949  1.27781662 1.27714482 1.27647948 1.27582057
 1.2751681  1.27452204 1.27388238 1.2732491  1.27262219 1.27200163
 1.27138741 1.27077952 1.27017793 1.26958264 1.26899364 1.26841089
 1.2678344  1.26726413 1.26670009 1.26614226 1.26559061 1.26504514
 1.26450583 1.26397266 1.26344563 1.2629247  1.26240988 1.26190114
 1.26139847 1.26090186 1.26041128 1.25992673 1.25944818 1.25897563
 1.25850905 1.25804844 1.25759378 1.25714505 1.25670223 1.25626532
 1.2558343  1.25540914 1.25498984 1.25457639 1.25416876 1.25376693
 1.25337091 1.25298066 1.25259618 1.25221745 1.25184445 1.25147717
 1.25111559 1.2507597  1.25040949 1.25006493 1.24972601 1.24939272
 1.24906504 1.24874296 1.24842646 1.24811553 1.24781014 1.24751029
 1.24721596 1.24692714 1.2466438  1.24636594 1.24609354 1.24582658
 1.24556505 1.24530893 1.24505821 1.24481288 1.24457291 1.24433829
 1.24410902 1.24388506 1.24366641 1.24345305 1.24324497 1.24304215
 1.24284458 1.24265223 1.24246511 1.24228318 1.24210644 1.24193487
 1.24176846 1.24160719 1.24145104 1.24130001 1.24115407 1.24101321
 1.24087742 1.24074668 1.24062097 1.24050029 1.24038461 1.24027393
 1.24016822 1.24006747 1.23997167 1.2398808  1.23979485 1.2397138
 1.23963764 1.23956635 1.23949992 1.23943833 1.23938158 1.23932963
 1.23928249 1.23924013 1.23920255 1.23916972 1.23914163 1.23911827
 1.23909962 1.23908567 1.2390764  1.2390718  1.23907186 1.23907655
 1.23908588 1.23909981 1.23911834 1.23914146 1.23916915 1.23920138
 1.23923817 1.23927947 1.23932529 1.23937561 1.23943041 1.23948968
 1.23955341 1.23962158 1.23969417 1.23977119 1.2398526  1.23993839
 1.24002857 1.24012309 1.24022197 1.24032517 1.24043269 1.24054452
 1.24066063 1.24078102 1.24090568 1.24103458 1.24116772 1.24130508
 1.24144665 1.24159241 1.24174235 1.24189646 1.24205473 1.24221714
 1.24238367 1.24255432 1.24272908 1.24290792 1.24309083 1.24327781
 1.24346883 1.24366389 1.24386297 1.24406607 1.24427316 1.24448423
 1.24469927 1.24491827 1.24514122 1.24536809 1.24559889 1.24583359
 1.24607219 1.24631467 1.24656101 1.24681121 1.24706526 1.24732313
 1.24758483 1.24785033 1.24811962 1.24839269 1.24866953 1.24895013
 1.24923447 1.24952254 1.24981433 1.25010983 1.25040902 1.2507119
 1.25101845 1.25132865 1.2516425  1.25195999 1.2522811  1.25260582
 1.25293414 1.25326604 1.25360152 1.25394056 1.25428316 1.2546293
 1.25497896 1.25533214 1.25568883 1.25604901 1.25641267 1.2567798
 1.25715039 1.25752443 1.25790191 1.25828281 1.25866713 1.25905484
 1.25944595 1.25984044 1.2602383  1.26063952 1.26104409 1.26145199
 1.26186321 1.26227775 1.2626956  1.26311673 1.26354115 1.26396884
 1.26439979 1.26483399 1.26527142 1.26571209 1.26615597 1.26660306
 1.26705335 1.26750682 1.26796347 1.26842329 1.26888625 1.26935237
 1.26982162 1.27029399 1.27076947 1.27124806 1.27172975 1.27221452
 1.27270236 1.27319326 1.27368722 1.27418422 1.27468426 1.27518732
 1.27569339 1.27620247 1.27671454 1.2772296  1.27774763 1.27826863
 1.27879259 1.27931949 1.27984933 1.28038209 1.28091778 1.28145637
 1.28199787 1.28254225 1.28308952 1.28363965 1.28419265 1.28474851
 1.28530721 1.28586874 1.2864331  1.28700028 1.28757026 1.28814305
 1.28871863 1.28929699 1.28987812 1.29046201 1.29104867 1.29163807
 1.2922302  1.29282507 1.29342266 1.29402296 1.29462597 1.29523167
 1.29584006 1.29645113 1.29706487 1.29768127 1.29830033 1.29892203
 1.29954637 1.30017334 1.30080294 1.30143514 1.30206996 1.30270737
 1.30334737 1.30398995 1.30463511 1.30528283 1.30593312 1.30658595
 1.30724133 1.30789924 1.30855968 1.30922264 1.30988812 1.3105561
 1.31122658 1.31189955 1.312575   1.31325293 1.31393332 1.31461618
 1.31530149 1.31598925 1.31667945 1.31737208 1.31806714 1.31876462
 1.31946451 1.3201668  1.32087149 1.32157857 1.32228804 1.32299988
 1.3237141  1.32443067 1.32514961 1.32587089 1.32659452 1.32732049
 1.32804879 1.32877941 1.32951235 1.3302476  1.33098516 1.33172502
 1.33246717 1.3332116  1.33395832 1.33470731 1.33545856 1.33621208
 1.33696785 1.33772588 1.33848614 1.33924865 1.34001338 1.34078035
 1.34154953 1.34232092 1.34309453 1.34387033 1.34464834 1.34542853
 1.34621091 1.34699547 1.34778221 1.34857111 1.34936218 1.3501554
 1.35095078 1.35174831 1.35254798 1.35334978 1.35415372 1.35495978
 1.35576796 1.35657826 1.35739067 1.35820519 1.3590218  1.35984052
 1.36066132 1.36148421 1.36230918 1.36313622 1.36396534 1.36479652
 1.36562977 1.36646507 1.36730243 1.36814183 1.36898328 1.36982676
 1.37067228 1.37151983 1.37236941 1.373221   1.37407461 1.37493024
 1.37578787 1.37664751 1.37750914 1.37837277 1.37923839 1.380106
 1.38097559 1.38184716 1.38272071 1.38359622 1.3844737  1.38535315
 1.38623455 1.38711791 1.38800322 1.38889048 1.38977968 1.39067083
 1.39156391 1.39245892 1.39335586 1.39425473 1.39515552 1.39605823
 1.39696285 1.39786939 1.39877784 1.39968819 1.40060044 1.40151459
 1.40243064 1.40334858 1.40426841 1.40519012 1.40611372 1.4070392
 1.40796655 1.40889578 1.40982688 1.41075985 1.41169469 1.41263138
 1.41356994 1.41451035 1.41545262 1.41639673 1.4173427  1.41829051
 1.41924017 1.42019167 1.421145   1.42210017 1.42305718 1.42401601
 1.42497668 1.42593917 1.42690348 1.42786962 1.42883758 1.42980735
 1.43077894 1.43175234 1.43272755 1.43370457 1.4346834  1.43566403
 1.43664647 1.4376307  1.43861674 1.43960457 1.44059419 1.44158561
 1.44257883 1.44357383 1.44457062 1.44556919 1.44656955 1.4475717
 1.44857562 1.44958133 1.45058881 1.45159808 1.45260911 1.45362193
 1.45463651 1.45565287 1.45667099 1.45769089 1.45871255 1.45973599
 1.46076118 1.46178814 1.46281687 1.46384735]
t = [1.09449390e+09 1.09449399e+09 1.09449407e+09 1.09449416e+09
 1.09449425e+09 1.09449433e+09 1.09449442e+09 1.09449451e+09
 1.09449459e+09 1.09449468e+09 1.09449477e+09 1.09449485e+09
 1.09449494e+09 1.09449502e+09 1.09449511e+09 1.09449520e+09
 1.09449528e+09 1.09449537e+09 1.09449546e+09 1.09449554e+09
 1.09449563e+09 1.09449572e+09 1.09449580e+09 1.09449589e+09
 1.09449598e+09 1.09449606e+09 1.09449615e+09 1.09449624e+09
 1.09449632e+09 1.09449641e+09 1.09449649e+09 1.09449658e+09
 1.09449667e+09 1.09449675e+09 1.09449684e+09 1.09449693e+09
 1.09449701e+09 1.09449710e+09 1.09449719e+09 1.09449727e+09
 1.09449736e+09 1.09449745e+09 1.09449753e+09 1.09449762e+09
 1.09449771e+09 1.09449779e+09 1.09449788e+09 1.09449797e+09
 1.09449805e+09 1.09449814e+09 1.09449822e+09 1.09449831e+09
 1.09449840e+09 1.09449848e+09 1.09449857e+09 1.09449866e+09
 1.09449874e+09 1.09449883e+09 1.09449892e+09 1.09449900e+09
 1.09449909e+09 1.09449918e+09 1.09449926e+09 1.09449935e+09
 1.09449944e+09 1.09449952e+09 1.09449961e+09 1.09449969e+09
 1.09449978e+09 1.09449987e+09 1.09449995e+09 1.09450004e+09
 1.09450013e+09 1.09450021e+09 1.09450030e+09 1.09450039e+09
 1.09450047e+09 1.09450056e+09 1.09450065e+09 1.09450073e+09
 1.09450082e+09 1.09450091e+09 1.09450099e+09 1.09450108e+09
 1.09450117e+09 1.09450125e+09 1.09450134e+09 1.09450142e+09
 1.09450151e+09 1.09450160e+09 1.09450168e+09 1.09450177e+09
 1.09450186e+09 1.09450194e+09 1.09450203e+09 1.09450212e+09
 1.09450220e+09 1.09450229e+09 1.09450238e+09 1.09450246e+09
 1.09450255e+09 1.09450264e+09 1.09450272e+09 1.09450281e+09
 1.09450289e+09 1.09450298e+09 1.09450307e+09 1.09450315e+09
 1.09450324e+09 1.09450333e+09 1.09450341e+09 1.09450350e+09
 1.09450359e+09 1.09450367e+09 1.09450376e+09 1.09450385e+09
 1.09450393e+09 1.09450402e+09 1.09450411e+09 1.09450419e+09
 1.09450428e+09 1.09450437e+09 1.09450445e+09 1.09450454e+09
 1.09450462e+09 1.09450471e+09 1.09450480e+09 1.09450488e+09
 1.09450497e+09 1.09450506e+09 1.09450514e+09 1.09450523e+09
 1.09450532e+09 1.09450540e+09 1.09450549e+09 1.09450558e+09
 1.09450566e+09 1.09450575e+09 1.09450584e+09 1.09450592e+09
 1.09450601e+09 1.09450609e+09 1.09450618e+09 1.09450627e+09
 1.09450635e+09 1.09450644e+09 1.09450653e+09 1.09450661e+09
 1.09450670e+09 1.09450679e+09 1.09450687e+09 1.09450696e+09
 1.09450705e+09 1.09450713e+09 1.09450722e+09 1.09450731e+09
 1.09450739e+09 1.09450748e+09 1.09450757e+09 1.09450765e+09
 1.09450774e+09 1.09450782e+09 1.09450791e+09 1.09450800e+09
 1.09450808e+09 1.09450817e+09 1.09450826e+09 1.09450834e+09
 1.09450843e+09 1.09450852e+09 1.09450860e+09 1.09450869e+09
 1.09450878e+09 1.09450886e+09 1.09450895e+09 1.09450904e+09
 1.09450912e+09 1.09450921e+09 1.09450929e+09 1.09450938e+09
 1.09450947e+09 1.09450955e+09 1.09450964e+09 1.09450973e+09
 1.09450981e+09 1.09450990e+09 1.09450999e+09 1.09451007e+09
 1.09451016e+09 1.09451025e+09 1.09451033e+09 1.09451042e+09
 1.09451051e+09 1.09451059e+09 1.09451068e+09 1.09451077e+09
 1.09451085e+09 1.09451094e+09 1.09451102e+09 1.09451111e+09
 1.09451120e+09 1.09451128e+09 1.09451137e+09 1.09451146e+09
 1.09451154e+09 1.09451163e+09 1.09451172e+09 1.09451180e+09
 1.09451189e+09 1.09451198e+09 1.09451206e+09 1.09451215e+09
 1.09451224e+09 1.09451232e+09 1.09451241e+09 1.09451249e+09
 1.09451258e+09 1.09451267e+09 1.09451275e+09 1.09451284e+09
 1.09451293e+09 1.09451301e+09 1.09451310e+09 1.09451319e+09
 1.09451327e+09 1.09451336e+09 1.09451345e+09 1.09451353e+09
 1.09451362e+09 1.09451371e+09 1.09451379e+09 1.09451388e+09
 1.09451397e+09 1.09451405e+09 1.09451414e+09 1.09451422e+09
 1.09451431e+09 1.09451440e+09 1.09451448e+09 1.09451457e+09
 1.09451466e+09 1.09451474e+09 1.09451483e+09 1.09451492e+09
 1.09451500e+09 1.09451509e+09 1.09451518e+09 1.09451526e+09
 1.09451535e+09 1.09451544e+09 1.09451552e+09 1.09451561e+09
 1.09451569e+09 1.09451578e+09 1.09451587e+09 1.09451595e+09
 1.09451604e+09 1.09451613e+09 1.09451621e+09 1.09451630e+09
 1.09451639e+09 1.09451647e+09 1.09451656e+09 1.09451665e+09
 1.09451673e+09 1.09451682e+09 1.09451691e+09 1.09451699e+09
 1.09451708e+09 1.09451717e+09 1.09451725e+09 1.09451734e+09
 1.09451742e+09 1.09451751e+09 1.09451760e+09 1.09451768e+09
 1.09451777e+09 1.09451786e+09 1.09451794e+09 1.09451803e+09
 1.09451812e+09 1.09451820e+09 1.09451829e+09 1.09451838e+09
 1.09451846e+09 1.09451855e+09 1.09451864e+09 1.09451872e+09
 1.09451881e+09 1.09451889e+09 1.09451898e+09 1.09451907e+09
 1.09451915e+09 1.09451924e+09 1.09451933e+09 1.09451941e+09
 1.09451950e+09 1.09451959e+09 1.09451967e+09 1.09451976e+09
 1.09451985e+09 1.09451993e+09 1.09452002e+09 1.09452011e+09
 1.09452019e+09 1.09452028e+09 1.09452037e+09 1.09452045e+09
 1.09452054e+09 1.09452062e+09 1.09452071e+09 1.09452080e+09
 1.09452088e+09 1.09452097e+09 1.09452106e+09 1.09452114e+09
 1.09452123e+09 1.09452132e+09 1.09452140e+09 1.09452149e+09
 1.09452158e+09 1.09452166e+09 1.09452175e+09 1.09452184e+09
 1.09452192e+09 1.09452201e+09 1.09452209e+09 1.09452218e+09
 1.09452227e+09 1.09452235e+09 1.09452244e+09 1.09452253e+09
 1.09452261e+09 1.09452270e+09 1.09452279e+09 1.09452287e+09
 1.09452296e+09 1.09452305e+09 1.09452313e+09 1.09452322e+09
 1.09452331e+09 1.09452339e+09 1.09452348e+09 1.09452357e+09
 1.09452365e+09 1.09452374e+09 1.09452382e+09 1.09452391e+09
 1.09452400e+09 1.09452408e+09 1.09452417e+09 1.09452426e+09
 1.09452434e+09 1.09452443e+09 1.09452452e+09 1.09452460e+09
 1.09452469e+09 1.09452478e+09 1.09452486e+09 1.09452495e+09
 1.09452504e+09 1.09452512e+09 1.09452521e+09 1.09452529e+09
 1.09452538e+09 1.09452547e+09 1.09452555e+09 1.09452564e+09
 1.09452573e+09 1.09452581e+09 1.09452590e+09 1.09452599e+09
 1.09452607e+09 1.09452616e+09 1.09452625e+09 1.09452633e+09
 1.09452642e+09 1.09452651e+09 1.09452659e+09 1.09452668e+09
 1.09452677e+09 1.09452685e+09 1.09452694e+09 1.09452702e+09
 1.09452711e+09 1.09452720e+09 1.09452728e+09 1.09452737e+09
 1.09452746e+09 1.09452754e+09 1.09452763e+09 1.09452772e+09
 1.09452780e+09 1.09452789e+09 1.09452798e+09 1.09452806e+09
 1.09452815e+09 1.09452824e+09 1.09452832e+09 1.09452841e+09
 1.09452849e+09 1.09452858e+09 1.09452867e+09 1.09452875e+09
 1.09452884e+09 1.09452893e+09 1.09452901e+09 1.09452910e+09
 1.09452919e+09 1.09452927e+09 1.09452936e+09 1.09452945e+09
 1.09452953e+09 1.09452962e+09 1.09452971e+09 1.09452979e+09
 1.09452988e+09 1.09452997e+09 1.09453005e+09 1.09453014e+09
 1.09453022e+09 1.09453031e+09 1.09453040e+09 1.09453048e+09
 1.09453057e+09 1.09453066e+09 1.09453074e+09 1.09453083e+09
 1.09453092e+09 1.09453100e+09 1.09453109e+09 1.09453118e+09
 1.09453126e+09 1.09453135e+09 1.09453144e+09 1.09453152e+09
 1.09453161e+09 1.09453169e+09 1.09453178e+09 1.09453187e+09
 1.09453195e+09 1.09453204e+09 1.09453213e+09 1.09453221e+09
 1.09453230e+09 1.09453239e+09 1.09453247e+09 1.09453256e+09
 1.09453265e+09 1.09453273e+09 1.09453282e+09 1.09453291e+09
 1.09453299e+09 1.09453308e+09 1.09453317e+09 1.09453325e+09
 1.09453334e+09 1.09453342e+09 1.09453351e+09 1.09453360e+09
 1.09453368e+09 1.09453377e+09 1.09453386e+09 1.09453394e+09
 1.09453403e+09 1.09453412e+09 1.09453420e+09 1.09453429e+09
 1.09453438e+09 1.09453446e+09 1.09453455e+09 1.09453464e+09
 1.09453472e+09 1.09453481e+09 1.09453489e+09 1.09453498e+09
 1.09453507e+09 1.09453515e+09 1.09453524e+09 1.09453533e+09
 1.09453541e+09 1.09453550e+09 1.09453559e+09 1.09453567e+09
 1.09453576e+09 1.09453585e+09 1.09453593e+09 1.09453602e+09
 1.09453611e+09 1.09453619e+09 1.09453628e+09 1.09453637e+09
 1.09453645e+09 1.09453654e+09 1.09453662e+09 1.09453671e+09
 1.09453680e+09 1.09453688e+09 1.09453697e+09 1.09453706e+09
 1.09453714e+09 1.09453723e+09 1.09453732e+09 1.09453740e+09
 1.09453749e+09 1.09453758e+09 1.09453766e+09 1.09453775e+09
 1.09453784e+09 1.09453792e+09 1.09453801e+09 1.09453809e+09
 1.09453818e+09 1.09453827e+09 1.09453835e+09 1.09453844e+09
 1.09453853e+09 1.09453861e+09 1.09453870e+09 1.09453879e+09
 1.09453887e+09 1.09453896e+09 1.09453905e+09 1.09453913e+09
 1.09453922e+09 1.09453931e+09 1.09453939e+09 1.09453948e+09
 1.09453957e+09 1.09453965e+09 1.09453974e+09 1.09453982e+09
 1.09453991e+09 1.09454000e+09 1.09454008e+09 1.09454017e+09
 1.09454026e+09 1.09454034e+09 1.09454043e+09 1.09454052e+09
 1.09454060e+09 1.09454069e+09 1.09454078e+09 1.09454086e+09
 1.09454095e+09 1.09454104e+09 1.09454112e+09 1.09454121e+09
 1.09454129e+09 1.09454138e+09 1.09454147e+09 1.09454155e+09
 1.09454164e+09 1.09454173e+09 1.09454181e+09 1.09454190e+09
 1.09454199e+09 1.09454207e+09 1.09454216e+09 1.09454225e+09
 1.09454233e+09 1.09454242e+09 1.09454251e+09 1.09454259e+09
