name =JUICE_ROI_GAN_7_0_09
flyby = ['2034 NOV 18 09:58:51', '2034 NOV 19 09:58:51']
Observation TW = <SpiceCell dtype = 1, length = 0, size = 2400, card = 4, is_set = 1, adjust = 0, init = 1, base = 93940531631104, data = 93940531631152>
Res(t) = [0.5973243  0.59749254 0.59766099 0.59782966 0.59799854 0.59816764
 0.59833695 0.59850648 0.59867622 0.59884617 0.59901634 0.59918673
 0.59935732 0.59952813 0.59969914 0.59987037 0.60004182 0.60021347
 0.60038533 0.6005574  0.60072968 0.60090217 0.60107487 0.60124778
 0.6014209  0.60159422 0.60176775 0.60194149 0.60211544 0.60228959
 0.60246395 0.60263851 0.60281328 0.60298825 0.60316343 0.60333881
 0.60351439 0.60369018 0.60386617 0.60404236 0.60421876 0.60439535
 0.60457215 0.60474915 0.60492635 0.60510375 0.60528134 0.60545914
 0.60563714 0.60581533 0.60599373 0.60617232 0.60635111 0.60653009
 0.60670928 0.60688866 0.60706823 0.607248   0.60742797 0.60760813
 0.60778848 0.60796903 0.60814977 0.60833071 0.60851183 0.60869315
 0.60887467 0.60905637 0.60923826 0.60942035 0.60960263 0.60978509
 0.60996775 0.61015059 0.61033363 0.61051685 0.61070026 0.61088386
 0.61106764 0.61125162 0.61143577 0.61162012 0.61180465 0.61198937
 0.61217427 0.61235935 0.61254462 0.61273008 0.61291571 0.61310153
 0.61328754 0.61347372 0.61366009 0.61384663 0.61403336 0.61422027
 0.61440736 0.61459463 0.61478208 0.61496971 0.61515751 0.6153455
 0.61553366 0.615722   0.61591052 0.61609921 0.61628808 0.61647713
 0.61666635 0.61685574 0.61704532 0.61723506 0.61742498 0.61761507
 0.61780534 0.61799578 0.61818639 0.61837717 0.61856812 0.61875925
 0.61895054 0.61914201 0.61933364 0.61952545 0.61971742 0.61990957
 0.62010188 0.62029436 0.620487   0.62067982 0.6208728  0.62106595
 0.62125926 0.62145274 0.62164638 0.62184019 0.62203416 0.6222283
 0.62242259 0.62261706 0.62281168 0.62300647 0.62320142 0.62339653
 0.6235918  0.62378724 0.62398283 0.62417858 0.62437449 0.62457057
 0.6247668  0.62496318 0.62515973 0.62535644 0.6255533  0.62575031
 0.62594749 0.62614482 0.6263423  0.62653994 0.62673774 0.62693569
 0.62713379 0.62733205 0.62753046 0.62772902 0.62792773 0.6281266
 0.62832562 0.62852479 0.62872411 0.62892358 0.6291232  0.62932297
 0.62952289 0.62972295 0.62992317 0.63012353 0.63032404 0.6305247
 0.63072551 0.63092646 0.63112755 0.63132879 0.63153018 0.63173171
 0.63193339 0.63213521 0.63233717 0.63253928 0.63274153 0.63294392
 0.63314645 0.63334913 0.63355194 0.6337549  0.633958   0.63416123
 0.63436461 0.63456812 0.63477178 0.63497557 0.6351795  0.63538357
 0.63558777 0.63579211 0.63599659 0.6362012  0.63640595 0.63661083
 0.63681585 0.637021   0.63722629 0.63743171 0.63763726 0.63784295
 0.63804877 0.63825472 0.6384608  0.63866701 0.63887335 0.63907983
 0.63928643 0.63949316 0.63970003 0.63990702 0.64011414 0.64032138
 0.64052876 0.64073626 0.64094389 0.64115164 0.64135952 0.64156753
 0.64177566 0.64198391 0.64219229 0.6424008  0.64260942 0.64281818
 0.64302705 0.64323604 0.64344516 0.6436544  0.64386376 0.64407324
 0.64428285 0.64449257 0.64470241 0.64491237 0.64512245 0.64533265
 0.64554296 0.6457534  0.64596395 0.64617461 0.6463854  0.6465963
 0.64680731 0.64701845 0.64722969 0.64744105 0.64765253 0.64786412
 0.64807582 0.64828763 0.64849956 0.6487116  0.64892375 0.64913601
 0.64934838 0.64956087 0.64977346 0.64998617 0.65019898 0.6504119
 0.65062493 0.65083807 0.65105132 0.65126468 0.65147814 0.65169171
 0.65190538 0.65211916 0.65233305 0.65254704 0.65276114 0.65297534
 0.65318964 0.65340405 0.65361857 0.65383318 0.6540479  0.65426272
 0.65447764 0.65469266 0.65490778 0.65512301 0.65533833 0.65555376
 0.65576928 0.6559849  0.65620062 0.65641644 0.65663236 0.65684837
 0.65706449 0.6572807  0.657497   0.6577134  0.6579299  0.65814649
 0.65836318 0.65857996 0.65879683 0.6590138  0.65923087 0.65944802
 0.65966527 0.65988261 0.66010004 0.66031757 0.66053518 0.66075289
 0.66097068 0.66118857 0.66140655 0.66162461 0.66184276 0.66206101
 0.66227934 0.66249776 0.66271626 0.66293485 0.66315353 0.6633723
 0.66359115 0.66381009 0.66402911 0.66424822 0.66446741 0.66468668
 0.66490604 0.66512548 0.66534501 0.66556462 0.66578431 0.66600408
 0.66622393 0.66644387 0.66666388 0.66688398 0.66710415 0.66732441
 0.66754474 0.66776516 0.66798565 0.66820622 0.66842687 0.66864759
 0.6688684  0.66908928 0.66931023 0.66953126 0.66975237 0.66997356
 0.67019481 0.67041615 0.67063755 0.67085903 0.67108059 0.67130222
 0.67152392 0.67174569 0.67196753 0.67218945 0.67241144 0.6726335
 0.67285563 0.67307783 0.6733001  0.67352244 0.67374485 0.67396732
 0.67418987 0.67441249 0.67463517 0.67485792 0.67508074 0.67530362
 0.67552657 0.67574959 0.67597267 0.67619582 0.67641903 0.67664231
 0.67686565 0.67708906 0.67731253 0.67753606 0.67775966 0.67798332
 0.67820704 0.67843082 0.67865466 0.67887857 0.67910254 0.67932657
 0.67955065 0.6797748  0.67999901 0.68022328 0.6804476  0.68067199
 0.68089643 0.68112093 0.68134549 0.6815701  0.68179477 0.6820195
 0.68224429 0.68246913 0.68269402 0.68291898 0.68314398 0.68336904
 0.68359416 0.68381933 0.68404455 0.68426982 0.68449515 0.68472053
 0.68494597 0.68517145 0.68539699 0.68562258 0.68584822 0.68607391
 0.68629965 0.68652544 0.68675127 0.68697716 0.6872031  0.68742909
 0.68765512 0.6878812  0.68810733 0.68833351 0.68855974 0.68878601
 0.68901232 0.68923869 0.6894651  0.68969155 0.68991805 0.6901446
 0.69037119 0.69059782 0.6908245  0.69105122 0.69127798 0.69150479
 0.69173164 0.69195853 0.69218546 0.69241244 0.69263945 0.69286651
 0.69309361 0.69332075 0.69354793 0.69377514 0.6940024  0.6942297
 0.69445704 0.69468441 0.69491182 0.69513927 0.69536676 0.69559429
 0.69582185 0.69604945 0.69627708 0.69650475 0.69673246 0.6969602
 0.69718798 0.6974158  0.69764364 0.69787153 0.69809944 0.69832739
 0.69855537 0.69878339 0.69901144 0.69923952 0.69946763 0.69969578
 0.69992396 0.70015216 0.7003804  0.70060867 0.70083697 0.7010653
 0.70129366 0.70152205 0.70175047 0.70197892 0.7022074  0.70243591
 0.70266444 0.702893   0.70312159 0.70335021 0.70357885 0.70380752
 0.70403622 0.70426494 0.70449369 0.70472246 0.70495126 0.70518008
 0.70540893 0.70563781 0.7058667  0.70609562 0.70632457 0.70655354
 0.70678253 0.70701154 0.70724058 0.70746964 0.70769872 0.70792782
 0.70815694 0.70838609 0.70861525 0.70884444 0.70907365 0.70930287
 0.70953212 0.70976139 0.70999067 0.71021998 0.7104493  0.71067864
 0.710908   0.71113738 0.71136677 0.71159618 0.71182561 0.71205506
 0.71228452 0.712514   0.71274349 0.712973   0.71320253 0.71343207
 0.71366163 0.7138912  0.71412079 0.71435039 0.71458    0.71480963
 0.71503927 0.71526892 0.71549859 0.71572827 0.71595796 0.71618767
 0.71641738 0.71664711 0.71687685 0.7171066  0.71733636 0.71756613
 0.71779592 0.71802571 0.71825551 0.71848532 0.71871515 0.71894498
 0.71917482 0.71940467 0.71963452 0.71986439 0.72009426 0.72032414
 0.72055403 0.72078393 0.72101383 0.72124374 0.72147366 0.72170358
 0.72193351 0.72216344 0.72239338 0.72262333 0.72285328 0.72308324
 0.7233132  0.72354316 0.72377313 0.7240031  0.72423308 0.72446306
 0.72469304 0.72492303 0.72515302 0.72538301 0.725613   0.725843
 0.726073   0.726303   0.726533   0.726763   0.726993   0.72722301
 0.72745301 0.72768302 0.72791302 0.72814303 0.72837303 0.72860304
 0.72883304 0.72906304 0.72929304 0.72952304 0.72975304 0.72998304
 0.73021303 0.73044302 0.73067301 0.730903   0.73113299 0.73136297
 0.73159294 0.73182292 0.73205289 0.73228285 0.73251282 0.73274277
 0.73297273 0.73320268 0.73343262 0.73366256 0.73389249 0.73412242
 0.73435234 0.73458225 0.73481216 0.73504207 0.73527196 0.73550185
 0.73573173 0.73596161 0.73619148 0.73642134 0.73665119 0.73688103
 0.73711087 0.7373407  0.73757051 0.73780032 0.73803013 0.73825992
 0.7384897  0.73871947 0.73894924 0.73917899 0.73940873 0.73963847
 0.73986819 0.7400979  0.7403276  0.74055729 0.74078697 0.74101664
 0.7412463  0.74147594 0.74170557 0.74193519 0.7421648  0.74239439
 0.74262398 0.74285355 0.7430831  0.74331265 0.74354218 0.74377169
 0.74400119 0.74423068 0.74446016 0.74468962 0.74491906 0.74514849
 0.74537791 0.74560731 0.7458367  0.74606607 0.74629542 0.74652476
 0.74675409 0.74698339 0.74721269 0.74744196 0.74767122 0.74790046
 0.74812969 0.7483589  0.74858809 0.74881726 0.74904642 0.74927556
 0.74950468 0.74973378 0.74996287 0.75019193 0.75042098 0.75065001
 0.75087902 0.75110802 0.75133699 0.75156594 0.75179488 0.75202379
 0.75225269 0.75248156 0.75271042 0.75293925 0.75316807 0.75339686
 0.75362564 0.75385439 0.75408312 0.75431184 0.75454053 0.75476919
 0.75499784 0.75522647 0.75545507 0.75568366 0.75591222 0.75614075
 0.75636927 0.75659776 0.75682623 0.75705468 0.75728311 0.75751151
 0.75773989 0.75796824 0.75819658 0.75842489 0.75865317 0.75888143
 0.75910967 0.75933788 0.75956607 0.75979424 0.76002238 0.76025049
 0.76047858 0.76070665 0.76093469 0.76116271 0.7613907  0.76161866
 0.7618466  0.76207452 0.7623024  0.76253027 0.7627581  0.76298591
 0.7632137  0.76344145 0.76366918 0.76389689 0.76412457 0.76435222
 0.76457984 0.76480744 0.76503501 0.76526255 0.76549006 0.76571755
 0.76594501 0.76617244 0.76639985 0.76662722 0.76685457 0.76708189
 0.76730918 0.76753644 0.76776368 0.76799088 0.76821806 0.76844521
 0.76867232 0.76889941 0.76912647 0.76935351 0.76958051 0.76980748
 0.77003442 0.77026133 0.77048822 0.77071507 0.77094189 0.77116868
 0.77139545 0.77162218 0.77184888 0.77207555 0.77230219 0.7725288
 0.77275538 0.77298193 0.77320844 0.77343493 0.77366138 0.77388781
 0.7741142  0.77434056 0.77456689 0.77479318 0.77501945 0.77524568
 0.77547188 0.77569805 0.77592419 0.77615029 0.77637636 0.7766024
 0.77682841 0.77705439 0.77728033 0.77750624 0.77773212 0.77795796
 0.77818377 0.77840955 0.77863529 0.77886101 0.77908668 0.77931233
 0.77953794 0.77976352 0.77998906 0.78021457 0.78044005 0.78066549
 0.7808909  0.78111628 0.78134162 0.78156693 0.7817922  0.78201744
 0.78224264 0.78246781 0.78269295 0.78291805 0.78314311 0.78336814
 0.78359314 0.7838181  0.78404303 0.78426792 0.78449278 0.7847176
 0.78494239 0.78516714 0.78539185 0.78561653 0.78584118 0.78606579
 0.78629036 0.7865149  0.78673941 0.78696387 0.78718831 0.7874127
 0.78763706 0.78786139 0.78808567 0.78830993 0.78853414 0.78875832
 0.78898246 0.78920657 0.78943064 0.78965468 0.78987868 0.79010264
 0.79032656 0.79055045 0.7907743  0.79099812 0.7912219  0.79144564
 0.79166934 0.79189301 0.79211664 0.79234024 0.79256379 0.79278731
 0.7930108  0.79323424 0.79345765 0.79368102 0.79390436 0.79412766
 0.79435092 0.79457414 0.79479732 0.79502047 0.79524358 0.79546665
 0.79568969 0.79591269 0.79613565 0.79635857 0.79658145 0.7968043
 0.79702711 0.79724988 0.79747261 0.79769531 0.79791797 0.79814059
 0.79836317 0.79858571 0.79880822 0.79903068 0.79925311 0.79947551
 0.79969786 0.79992017 0.80014245 0.80036469 0.80058689 0.80080905
 0.80103118 0.80125326 0.80147531 0.80169732 0.80191929 0.80214122
 0.80236312 0.80258497 0.80280679 0.80302857 0.80325031 0.80347201
 0.80369367 0.8039153  0.80413688 0.80435843 0.80457994 0.80480141
 0.80502284 0.80524423 0.80546559 0.8056869  0.80590818 0.80612942
 0.80635062 0.80657178 0.8067929  0.80701398 0.80723503 0.80745603
 0.807677   0.80789793 0.80811882 0.80833967 0.80856048 0.80878126
 0.80900199 0.80922269 0.80944334 0.80966396 0.80988454 0.81010508
 0.81032559 0.81054605 0.81076647 0.81098686 0.81120721 0.81142751
 0.81164778 0.81186801 0.8120882  0.81230836 0.81252847 0.81274855
 0.81296858 0.81318858 0.81340854 0.81362846]
t = [1.10078325e+09 1.10078328e+09 1.10078331e+09 1.10078335e+09
 1.10078338e+09 1.10078341e+09 1.10078344e+09 1.10078347e+09
 1.10078351e+09 1.10078354e+09 1.10078357e+09 1.10078360e+09
 1.10078363e+09 1.10078367e+09 1.10078370e+09 1.10078373e+09
 1.10078376e+09 1.10078379e+09 1.10078383e+09 1.10078386e+09
 1.10078389e+09 1.10078392e+09 1.10078395e+09 1.10078399e+09
 1.10078402e+09 1.10078405e+09 1.10078408e+09 1.10078411e+09
 1.10078415e+09 1.10078418e+09 1.10078421e+09 1.10078424e+09
 1.10078427e+09 1.10078431e+09 1.10078434e+09 1.10078437e+09
 1.10078440e+09 1.10078443e+09 1.10078447e+09 1.10078450e+09
 1.10078453e+09 1.10078456e+09 1.10078459e+09 1.10078463e+09
 1.10078466e+09 1.10078469e+09 1.10078472e+09 1.10078475e+09
 1.10078479e+09 1.10078482e+09 1.10078485e+09 1.10078488e+09
 1.10078491e+09 1.10078495e+09 1.10078498e+09 1.10078501e+09
 1.10078504e+09 1.10078507e+09 1.10078511e+09 1.10078514e+09
 1.10078517e+09 1.10078520e+09 1.10078523e+09 1.10078527e+09
 1.10078530e+09 1.10078533e+09 1.10078536e+09 1.10078539e+09
 1.10078542e+09 1.10078546e+09 1.10078549e+09 1.10078552e+09
 1.10078555e+09 1.10078558e+09 1.10078562e+09 1.10078565e+09
 1.10078568e+09 1.10078571e+09 1.10078574e+09 1.10078578e+09
 1.10078581e+09 1.10078584e+09 1.10078587e+09 1.10078590e+09
 1.10078594e+09 1.10078597e+09 1.10078600e+09 1.10078603e+09
 1.10078606e+09 1.10078610e+09 1.10078613e+09 1.10078616e+09
 1.10078619e+09 1.10078622e+09 1.10078626e+09 1.10078629e+09
 1.10078632e+09 1.10078635e+09 1.10078638e+09 1.10078642e+09
 1.10078645e+09 1.10078648e+09 1.10078651e+09 1.10078654e+09
 1.10078658e+09 1.10078661e+09 1.10078664e+09 1.10078667e+09
 1.10078670e+09 1.10078674e+09 1.10078677e+09 1.10078680e+09
 1.10078683e+09 1.10078686e+09 1.10078690e+09 1.10078693e+09
 1.10078696e+09 1.10078699e+09 1.10078702e+09 1.10078706e+09
 1.10078709e+09 1.10078712e+09 1.10078715e+09 1.10078718e+09
 1.10078722e+09 1.10078725e+09 1.10078728e+09 1.10078731e+09
 1.10078734e+09 1.10078738e+09 1.10078741e+09 1.10078744e+09
 1.10078747e+09 1.10078750e+09 1.10078754e+09 1.10078757e+09
 1.10078760e+09 1.10078763e+09 1.10078766e+09 1.10078770e+09
 1.10078773e+09 1.10078776e+09 1.10078779e+09 1.10078782e+09
 1.10078786e+09 1.10078789e+09 1.10078792e+09 1.10078795e+09
 1.10078798e+09 1.10078802e+09 1.10078805e+09 1.10078808e+09
 1.10078811e+09 1.10078814e+09 1.10078818e+09 1.10078821e+09
 1.10078824e+09 1.10078827e+09 1.10078830e+09 1.10078834e+09
 1.10078837e+09 1.10078840e+09 1.10078843e+09 1.10078846e+09
 1.10078850e+09 1.10078853e+09 1.10078856e+09 1.10078859e+09
 1.10078862e+09 1.10078866e+09 1.10078869e+09 1.10078872e+09
 1.10078875e+09 1.10078878e+09 1.10078882e+09 1.10078885e+09
 1.10078888e+09 1.10078891e+09 1.10078894e+09 1.10078897e+09
 1.10078901e+09 1.10078904e+09 1.10078907e+09 1.10078910e+09
 1.10078913e+09 1.10078917e+09 1.10078920e+09 1.10078923e+09
 1.10078926e+09 1.10078929e+09 1.10078933e+09 1.10078936e+09
 1.10078939e+09 1.10078942e+09 1.10078945e+09 1.10078949e+09
 1.10078952e+09 1.10078955e+09 1.10078958e+09 1.10078961e+09
 1.10078965e+09 1.10078968e+09 1.10078971e+09 1.10078974e+09
 1.10078977e+09 1.10078981e+09 1.10078984e+09 1.10078987e+09
 1.10078990e+09 1.10078993e+09 1.10078997e+09 1.10079000e+09
 1.10079003e+09 1.10079006e+09 1.10079009e+09 1.10079013e+09
 1.10079016e+09 1.10079019e+09 1.10079022e+09 1.10079025e+09
 1.10079029e+09 1.10079032e+09 1.10079035e+09 1.10079038e+09
 1.10079041e+09 1.10079045e+09 1.10079048e+09 1.10079051e+09
 1.10079054e+09 1.10079057e+09 1.10079061e+09 1.10079064e+09
 1.10079067e+09 1.10079070e+09 1.10079073e+09 1.10079077e+09
 1.10079080e+09 1.10079083e+09 1.10079086e+09 1.10079089e+09
 1.10079093e+09 1.10079096e+09 1.10079099e+09 1.10079102e+09
 1.10079105e+09 1.10079109e+09 1.10079112e+09 1.10079115e+09
 1.10079118e+09 1.10079121e+09 1.10079125e+09 1.10079128e+09
 1.10079131e+09 1.10079134e+09 1.10079137e+09 1.10079141e+09
 1.10079144e+09 1.10079147e+09 1.10079150e+09 1.10079153e+09
 1.10079157e+09 1.10079160e+09 1.10079163e+09 1.10079166e+09
 1.10079169e+09 1.10079173e+09 1.10079176e+09 1.10079179e+09
 1.10079182e+09 1.10079185e+09 1.10079189e+09 1.10079192e+09
 1.10079195e+09 1.10079198e+09 1.10079201e+09 1.10079205e+09
 1.10079208e+09 1.10079211e+09 1.10079214e+09 1.10079217e+09
 1.10079221e+09 1.10079224e+09 1.10079227e+09 1.10079230e+09
 1.10079233e+09 1.10079237e+09 1.10079240e+09 1.10079243e+09
 1.10079246e+09 1.10079249e+09 1.10079252e+09 1.10079256e+09
 1.10079259e+09 1.10079262e+09 1.10079265e+09 1.10079268e+09
 1.10079272e+09 1.10079275e+09 1.10079278e+09 1.10079281e+09
 1.10079284e+09 1.10079288e+09 1.10079291e+09 1.10079294e+09
 1.10079297e+09 1.10079300e+09 1.10079304e+09 1.10079307e+09
 1.10079310e+09 1.10079313e+09 1.10079316e+09 1.10079320e+09
 1.10079323e+09 1.10079326e+09 1.10079329e+09 1.10079332e+09
 1.10079336e+09 1.10079339e+09 1.10079342e+09 1.10079345e+09
 1.10079348e+09 1.10079352e+09 1.10079355e+09 1.10079358e+09
 1.10079361e+09 1.10079364e+09 1.10079368e+09 1.10079371e+09
 1.10079374e+09 1.10079377e+09 1.10079380e+09 1.10079384e+09
 1.10079387e+09 1.10079390e+09 1.10079393e+09 1.10079396e+09
 1.10079400e+09 1.10079403e+09 1.10079406e+09 1.10079409e+09
 1.10079412e+09 1.10079416e+09 1.10079419e+09 1.10079422e+09
 1.10079425e+09 1.10079428e+09 1.10079432e+09 1.10079435e+09
 1.10079438e+09 1.10079441e+09 1.10079444e+09 1.10079448e+09
 1.10079451e+09 1.10079454e+09 1.10079457e+09 1.10079460e+09
 1.10079464e+09 1.10079467e+09 1.10079470e+09 1.10079473e+09
 1.10079476e+09 1.10079480e+09 1.10079483e+09 1.10079486e+09
 1.10079489e+09 1.10079492e+09 1.10079496e+09 1.10079499e+09
 1.10079502e+09 1.10079505e+09 1.10079508e+09 1.10079512e+09
 1.10079515e+09 1.10079518e+09 1.10079521e+09 1.10079524e+09
 1.10079528e+09 1.10079531e+09 1.10079534e+09 1.10079537e+09
 1.10079540e+09 1.10079544e+09 1.10079547e+09 1.10079550e+09
 1.10079553e+09 1.10079556e+09 1.10079560e+09 1.10079563e+09
 1.10079566e+09 1.10079569e+09 1.10079572e+09 1.10079576e+09
 1.10079579e+09 1.10079582e+09 1.10079585e+09 1.10079588e+09
 1.10079592e+09 1.10079595e+09 1.10079598e+09 1.10079601e+09
 1.10079604e+09 1.10079607e+09 1.10079611e+09 1.10079614e+09
 1.10079617e+09 1.10079620e+09 1.10079623e+09 1.10079627e+09
 1.10079630e+09 1.10079633e+09 1.10079636e+09 1.10079639e+09
 1.10079643e+09 1.10079646e+09 1.10079649e+09 1.10079652e+09
 1.10079655e+09 1.10079659e+09 1.10079662e+09 1.10079665e+09
 1.10079668e+09 1.10079671e+09 1.10079675e+09 1.10079678e+09
 1.10079681e+09 1.10079684e+09 1.10079687e+09 1.10079691e+09
 1.10079694e+09 1.10079697e+09 1.10079700e+09 1.10079703e+09
 1.10079707e+09 1.10079710e+09 1.10079713e+09 1.10079716e+09
 1.10079719e+09 1.10079723e+09 1.10079726e+09 1.10079729e+09
 1.10079732e+09 1.10079735e+09 1.10079739e+09 1.10079742e+09
 1.10079745e+09 1.10079748e+09 1.10079751e+09 1.10079755e+09
 1.10079758e+09 1.10079761e+09 1.10079764e+09 1.10079767e+09
 1.10079771e+09 1.10079774e+09 1.10079777e+09 1.10079780e+09
 1.10079783e+09 1.10079787e+09 1.10079790e+09 1.10079793e+09
 1.10079796e+09 1.10079799e+09 1.10079803e+09 1.10079806e+09
 1.10079809e+09 1.10079812e+09 1.10079815e+09 1.10079819e+09
 1.10079822e+09 1.10079825e+09 1.10079828e+09 1.10079831e+09
 1.10079835e+09 1.10079838e+09 1.10079841e+09 1.10079844e+09
 1.10079847e+09 1.10079851e+09 1.10079854e+09 1.10079857e+09
 1.10079860e+09 1.10079863e+09 1.10079867e+09 1.10079870e+09
 1.10079873e+09 1.10079876e+09 1.10079879e+09 1.10079883e+09
 1.10079886e+09 1.10079889e+09 1.10079892e+09 1.10079895e+09
 1.10079899e+09 1.10079902e+09 1.10079905e+09 1.10079908e+09
 1.10079911e+09 1.10079915e+09 1.10079918e+09 1.10079921e+09
 1.10079924e+09 1.10079927e+09 1.10079931e+09 1.10079934e+09
 1.10079937e+09 1.10079940e+09 1.10079943e+09 1.10079947e+09
 1.10079950e+09 1.10079953e+09 1.10079956e+09 1.10079959e+09
 1.10079962e+09 1.10079966e+09 1.10079969e+09 1.10079972e+09
 1.10079975e+09 1.10079978e+09 1.10079982e+09 1.10079985e+09
 1.10079988e+09 1.10079991e+09 1.10079994e+09 1.10079998e+09
 1.10080001e+09 1.10080004e+09 1.10080007e+09 1.10080010e+09
 1.10080014e+09 1.10080017e+09 1.10080020e+09 1.10080023e+09
 1.10080026e+09 1.10080030e+09 1.10080033e+09 1.10080036e+09
 1.10080039e+09 1.10080042e+09 1.10080046e+09 1.10080049e+09
 1.10080052e+09 1.10080055e+09 1.10080058e+09 1.10080062e+09
 1.10080065e+09 1.10080068e+09 1.10080071e+09 1.10080074e+09
 1.10080078e+09 1.10080081e+09 1.10080084e+09 1.10080087e+09
 1.10080090e+09 1.10080094e+09 1.10080097e+09 1.10080100e+09
 1.10080103e+09 1.10080106e+09 1.10080110e+09 1.10080113e+09
 1.10080116e+09 1.10080119e+09 1.10080122e+09 1.10080126e+09
