name =JUICE_ROI_GAN_4_5_04
flyby = ['2034 NOV 18 09:58:51', '2034 NOV 19 09:58:51']
Observation TW = <SpiceCell dtype = 1, length = 0, size = 3200, card = 12, is_set = 1, adjust = 0, init = 1, base = 93945771474288, data = 93945771474336>
Res(t) = [1.1580493  1.15794869 1.15784836 1.15774829 1.1576485  1.15754898
 1.15744972 1.15735074 1.15725202 1.15715357 1.1570554  1.15695748
 1.15685984 1.15676247 1.15666536 1.15656852 1.15647194 1.15637563
 1.15627959 1.15618381 1.1560883  1.15599305 1.15589807 1.15580335
 1.15570889 1.1556147  1.15552077 1.15542711 1.1553337  1.15524056
 1.15514769 1.15505507 1.15496272 1.15487062 1.15477879 1.15468722
 1.15459591 1.15450486 1.15441407 1.15432353 1.15423326 1.15414325
 1.15405349 1.15396399 1.15387475 1.15378577 1.15369705 1.15360858
 1.15352037 1.15343242 1.15334472 1.15325728 1.15317009 1.15308316
 1.15299648 1.15291006 1.15282389 1.15273798 1.15265232 1.15256691
 1.15248176 1.15239686 1.15231222 1.15222782 1.15214368 1.15205979
 1.15197615 1.15189276 1.15180963 1.15172674 1.1516441  1.15156172
 1.15147958 1.1513977  1.15131606 1.15123467 1.15115353 1.15107264
 1.150992   1.15091161 1.15083146 1.15075156 1.15067191 1.1505925
 1.15051334 1.15043443 1.15035576 1.15027734 1.15019917 1.15012124
 1.15004355 1.14996611 1.14988891 1.14981196 1.14973525 1.14965879
 1.14958257 1.14950659 1.14943085 1.14935536 1.1492801  1.14920509
 1.14913033 1.1490558  1.14898151 1.14890747 1.14883367 1.1487601
 1.14868678 1.14861369 1.14854085 1.14846825 1.14839588 1.14832375
 1.14825186 1.14818021 1.1481088  1.14803763 1.14796669 1.14789599
 1.14782553 1.1477553  1.14768531 1.14761556 1.14754604 1.14747676
 1.14740771 1.1473389  1.14727032 1.14720198 1.14713387 1.147066
 1.14699836 1.14693095 1.14686378 1.14679684 1.14673014 1.14666366
 1.14659742 1.14653141 1.14646564 1.14640009 1.14633478 1.14626969
 1.14620484 1.14614022 1.14607583 1.14601167 1.14594774 1.14588404
 1.14582057 1.14575733 1.14569431 1.14563153 1.14556897 1.14550665
 1.14544455 1.14538267 1.14532103 1.14525961 1.14519842 1.14513746
 1.14507672 1.14501621 1.14495593 1.14489587 1.14483604 1.14477643
 1.14471705 1.1446579  1.14459896 1.14454026 1.14448177 1.14442351
 1.14436548 1.14430767 1.14425008 1.14419271 1.14413557 1.14407865
 1.14402195 1.14396548 1.14390922 1.14385319 1.14379738 1.14374179
 1.14368642 1.14363127 1.14357635 1.14352164 1.14346716 1.14341289
 1.14335884 1.14330501 1.14325141 1.14319802 1.14314485 1.1430919
 1.14303916 1.14298665 1.14293435 1.14288227 1.14283041 1.14277876
 1.14272733 1.14267612 1.14262513 1.14257435 1.14252379 1.14247344
 1.14242331 1.14237339 1.14232369 1.14227421 1.14222494 1.14217588
 1.14212704 1.14207842 1.14203    1.1419818  1.14193382 1.14188605
 1.14183849 1.14179114 1.14174401 1.14169709 1.14165038 1.14160388
 1.1415576  1.14151152 1.14146566 1.14142001 1.14137457 1.14132934
 1.14128432 1.14123951 1.14119492 1.14115053 1.14110635 1.14106238
 1.14101862 1.14097507 1.14093173 1.1408886  1.14084568 1.14080296
 1.14076045 1.14071815 1.14067606 1.14063418 1.1405925  1.14055103
 1.14050977 1.14046871 1.14042786 1.14038722 1.14034678 1.14030655
 1.14026653 1.14022671 1.14018709 1.14014768 1.14010848 1.14006948
 1.14003068 1.13999209 1.1399537  1.13991552 1.13987754 1.13983977
 1.13980219 1.13976482 1.13972766 1.13969069 1.13965393 1.13961737
 1.13958102 1.13954486 1.13950891 1.13947316 1.13943761 1.13940226
 1.13936711 1.13933217 1.13929742 1.13926288 1.13922853 1.13919438
 1.13916044 1.13912669 1.13909315 1.1390598  1.13902665 1.13899371
 1.13896096 1.1389284  1.13889605 1.1388639  1.13883194 1.13880018
 1.13876862 1.13873726 1.13870609 1.13867512 1.13864435 1.13861377
 1.13858339 1.13855321 1.13852323 1.13849343 1.13846384 1.13843444
 1.13840524 1.13837623 1.13834742 1.1383188  1.13829037 1.13826215
 1.13823411 1.13820627 1.13817862 1.13815117 1.13812391 1.13809685
 1.13806998 1.1380433  1.13801681 1.13799052 1.13796442 1.13793851
 1.1379128  1.13788727 1.13786194 1.1378368  1.13781185 1.1377871
 1.13776253 1.13773815 1.13771397 1.13768998 1.13766618 1.13764256
 1.13761914 1.13759591 1.13757287 1.13755001 1.13752735 1.13750488
 1.13748259 1.1374605  1.13743859 1.13741687 1.13739534 1.137374
 1.13735285 1.13733189 1.13731111 1.13729052 1.13727012 1.1372499
 1.13722988 1.13721004 1.13719038 1.13717092 1.13715163 1.13713254
 1.13711363 1.13709491 1.13707637 1.13705802 1.13703986 1.13702188
 1.13700409 1.13698648 1.13696905 1.13695181 1.13693476 1.13691789
 1.1369012  1.1368847  1.13686838 1.13685224 1.13683629 1.13682053
 1.13680494 1.13678954 1.13677432 1.13675929 1.13674443 1.13672976
 1.13671527 1.13670097 1.13668684 1.1366729  1.13665914 1.13664556
 1.13663217 1.13661895 1.13660591 1.13659306 1.13658039 1.13656789
 1.13655558 1.13654345 1.1365315  1.13651973 1.13650813 1.13649672
 1.13648549 1.13647444 1.13646356 1.13645287 1.13644235 1.13643201
 1.13642185 1.13641187 1.13640207 1.13639245 1.136383   1.13637373
 1.13636464 1.13635573 1.136347   1.13633844 1.13633006 1.13632186
 1.13631383 1.13630598 1.13629831 1.13629081 1.13628349 1.13627634
 1.13626937 1.13626258 1.13625596 1.13624952 1.13624326 1.13623717
 1.13623125 1.13622551 1.13621994 1.13621455 1.13620933 1.13620429
 1.13619942 1.13619473 1.13619021 1.13618586 1.13618169 1.13617769
 1.13617386 1.13617021 1.13616673 1.13616343 1.13616029 1.13615733
 1.13615454 1.13615193 1.13614948 1.13614721 1.13614511 1.13614319
 1.13614143 1.13613985 1.13613843 1.13613719 1.13613612 1.13613522
 1.13613449 1.13613394 1.13613355 1.13613333 1.13613329 1.13613341
 1.1361337  1.13613417 1.1361348  1.1361356  1.13613658 1.13613772
 1.13613903 1.13614051 1.13614216 1.13614398 1.13614597 1.13614812
 1.13615045 1.13615294 1.1361556  1.13615843 1.13616143 1.13616459
 1.13616793 1.13617143 1.1361751  1.13617893 1.13618293 1.1361871
 1.13619144 1.13619594 1.13620061 1.13620545 1.13621045 1.13621562
 1.13622095 1.13622645 1.13623212 1.13623795 1.13624395 1.13625011
 1.13625644 1.13626294 1.1362696  1.13627642 1.13628341 1.13629056
 1.13629788 1.13630536 1.13631301 1.13632082 1.1363288  1.13633694
 1.13634524 1.13635371 1.13636234 1.13637114 1.13638009 1.13638921
 1.1363985  1.13640795 1.13641756 1.13642733 1.13643726 1.13644736
 1.13645762 1.13646805 1.13647863 1.13648938 1.13650029 1.13651136
 1.13652259 1.13653398 1.13654554 1.13655725 1.13656913 1.13658117
 1.13659337 1.13660573 1.13661825 1.13663093 1.13664378 1.13665678
 1.13666994 1.13668327 1.13669675 1.13671039 1.13672419 1.13673816
 1.13675228 1.13676656 1.136781   1.1367956  1.13681036 1.13682528
 1.13684036 1.13685559 1.13687099 1.13688654 1.13690225 1.13691812
 1.13693415 1.13695033 1.13696667 1.13698318 1.13699984 1.13701665
 1.13703363 1.13705076 1.13706805 1.13708549 1.1371031  1.13712086
 1.13713877 1.13715684 1.13717508 1.13719346 1.137212   1.1372307
 1.13724956 1.13726857 1.13728774 1.13730706 1.13732654 1.13734617
 1.13736596 1.13738591 1.13740601 1.13742626 1.13744668 1.13746724
 1.13748796 1.13750884 1.13752987 1.13755105 1.13757239 1.13759388
 1.13761553 1.13763733 1.13765929 1.1376814  1.13770366 1.13772608
 1.13774865 1.13777137 1.13779425 1.13781728 1.13784046 1.1378638
 1.13788729 1.13791093 1.13793472 1.13795867 1.13798277 1.13800702
 1.13803143 1.13805598 1.13808069 1.13810556 1.13813057 1.13815573
 1.13818105 1.13820652 1.13823214 1.13825791 1.13828383 1.1383099
 1.13833613 1.1383625  1.13838903 1.13841571 1.13844253 1.13846951
 1.13849664 1.13852392 1.13855135 1.13857893 1.13860666 1.13863454
 1.13866257 1.13869075 1.13871908 1.13874756 1.13877619 1.13880496
 1.13883389 1.13886297 1.13889219 1.13892157 1.13895109 1.13898076
 1.13901058 1.13904055 1.13907067 1.13910093 1.13913135 1.13916191
 1.13919262 1.13922348 1.13925449 1.13928564 1.13931695 1.1393484
 1.13937999 1.13941174 1.13944363 1.13947567 1.13950786 1.13954019
 1.13957267 1.1396053  1.13963808 1.139671   1.13970407 1.13973728
 1.13977064 1.13980415 1.1398378  1.1398716  1.13990555 1.13993964
 1.13997388 1.14000826 1.14004279 1.14007747 1.14011229 1.14014725
 1.14018236 1.14021762 1.14025302 1.14028857 1.14032426 1.1403601
 1.14039608 1.1404322  1.14046848 1.14050489 1.14054145 1.14057815
 1.140615   1.140652   1.14068913 1.14072641 1.14076384 1.14080141
 1.14083912 1.14087697 1.14091497 1.14095312 1.1409914  1.14102983
 1.1410684  1.14110712 1.14114598 1.14118498 1.14122413 1.14126341
 1.14130284 1.14134242 1.14138213 1.14142199 1.14146199 1.14150213
 1.14154242 1.14158284 1.14162341 1.14166412 1.14170498 1.14174597
 1.14178711 1.14182838 1.1418698  1.14191136 1.14195307 1.14199491
 1.14203689 1.14207902 1.14212129 1.14216369 1.14220624 1.14224893
 1.14229176 1.14233473 1.14237784 1.14242109 1.14246449 1.14250802
 1.14255169 1.1425955  1.14263945 1.14268355 1.14272778 1.14277215
 1.14281666 1.14286131 1.1429061  1.14295104 1.14299611 1.14304131
 1.14308666 1.14313215 1.14317778 1.14322354 1.14326945 1.14331549
 1.14336167 1.14340799 1.14345445 1.14350105 1.14354779 1.14359466
 1.14364168 1.14368883 1.14373612 1.14378355 1.14383111 1.14387881
 1.14392666 1.14397464 1.14402275 1.14407101 1.1441194  1.14416793
 1.1442166  1.1442654  1.14431434 1.14436342 1.14441264 1.14446199
 1.14451148 1.1445611  1.14461087 1.14466077 1.1447108  1.14476098
 1.14481129 1.14486173 1.14491232 1.14496304 1.14501389 1.14506488
 1.14511601 1.14516727 1.14521867 1.14527021 1.14532188 1.14537368
 1.14542562 1.1454777  1.14552991 1.14558226 1.14563475 1.14568737
 1.14574012 1.14579301 1.14584603 1.14589919 1.14595249 1.14600592
 1.14605948 1.14611318 1.14616701 1.14622098 1.14627508 1.14632932
 1.14638369 1.14643819 1.14649283 1.14654761 1.14660251 1.14665755
 1.14671273 1.14676804 1.14682348 1.14687906 1.14693477 1.14699061
 1.14704659 1.1471027  1.14715895 1.14721532 1.14727183 1.14732848
 1.14738526 1.14744217 1.14749921 1.14755638 1.14761369 1.14767114
 1.14772871 1.14778642 1.14784426 1.14790223 1.14796033 1.14801857
 1.14807694 1.14813544 1.14819407 1.14825284 1.14831174 1.14837077
 1.14842993 1.14848922 1.14854865 1.1486082  1.14866789 1.14872771
 1.14878767 1.14884775 1.14890796 1.14896831 1.14902879 1.1490894
 1.14915013 1.14921101 1.14927201 1.14933314 1.1493944  1.1494558
 1.14951732 1.14957898 1.14964077 1.14970268 1.14976473 1.14982691
 1.14988922 1.14995166 1.15001423 1.15007692 1.15013975 1.15020271
 1.1502658  1.15032902 1.15039237 1.15045585 1.15051946 1.1505832
 1.15064707 1.15071107 1.15077519 1.15083945 1.15090384 1.15096835
 1.151033   1.15109777 1.15116268 1.15122771 1.15129287 1.15135816
 1.15142358 1.15148913 1.15155481 1.15162061 1.15168655 1.15175261
 1.15181881 1.15188513 1.15195158 1.15201815 1.15208486 1.15215169
 1.15221866 1.15228575 1.15235297 1.15242031 1.15248779 1.15255539
 1.15262312 1.15269098 1.15275897 1.15282708 1.15289532 1.15296369
 1.15303219 1.15310082 1.15316957 1.15323845 1.15330745 1.15337659
 1.15344585 1.15351524 1.15358475 1.1536544  1.15372417 1.15379406
 1.15386409 1.15393424 1.15400451 1.15407492 1.15414545 1.15421611
 1.15428689 1.1543578  1.15442884 1.1545     1.15457129 1.15464271
 1.15471425 1.15478592 1.15485771 1.15492963 1.15500168 1.15507385
 1.15514615 1.15521858 1.15529113 1.1553638  1.15543661 1.15550953
 1.15558259 1.15565577 1.15572907 1.1558025  1.15587606 1.15594974
 1.15602354 1.15609747 1.15617153 1.15624571 1.15632002 1.15639445
 1.15646901 1.15654369 1.1566185  1.15669343 1.15676848 1.15684367
 1.15691897 1.1569944  1.15706996 1.15714564]
t = [1.10080155e+09 1.10080156e+09 1.10080158e+09 1.10080159e+09
 1.10080160e+09 1.10080162e+09 1.10080163e+09 1.10080165e+09
 1.10080166e+09 1.10080167e+09 1.10080169e+09 1.10080170e+09
 1.10080171e+09 1.10080173e+09 1.10080174e+09 1.10080176e+09
 1.10080177e+09 1.10080178e+09 1.10080180e+09 1.10080181e+09
 1.10080182e+09 1.10080184e+09 1.10080185e+09 1.10080186e+09
 1.10080188e+09 1.10080189e+09 1.10080191e+09 1.10080192e+09
 1.10080193e+09 1.10080195e+09 1.10080196e+09 1.10080197e+09
 1.10080199e+09 1.10080200e+09 1.10080201e+09 1.10080203e+09
 1.10080204e+09 1.10080206e+09 1.10080207e+09 1.10080208e+09
 1.10080210e+09 1.10080211e+09 1.10080212e+09 1.10080214e+09
 1.10080215e+09 1.10080217e+09 1.10080218e+09 1.10080219e+09
 1.10080221e+09 1.10080222e+09 1.10080223e+09 1.10080225e+09
 1.10080226e+09 1.10080227e+09 1.10080229e+09 1.10080230e+09
 1.10080232e+09 1.10080233e+09 1.10080234e+09 1.10080236e+09
 1.10080237e+09 1.10080238e+09 1.10080240e+09 1.10080241e+09
 1.10080242e+09 1.10080244e+09 1.10080245e+09 1.10080247e+09
 1.10080248e+09 1.10080249e+09 1.10080251e+09 1.10080252e+09
 1.10080253e+09 1.10080255e+09 1.10080256e+09 1.10080257e+09
 1.10080259e+09 1.10080260e+09 1.10080262e+09 1.10080263e+09
 1.10080264e+09 1.10080266e+09 1.10080267e+09 1.10080268e+09
 1.10080270e+09 1.10080271e+09 1.10080273e+09 1.10080274e+09
 1.10080275e+09 1.10080277e+09 1.10080278e+09 1.10080279e+09
 1.10080281e+09 1.10080282e+09 1.10080283e+09 1.10080285e+09
 1.10080286e+09 1.10080288e+09 1.10080289e+09 1.10080290e+09
 1.10080292e+09 1.10080293e+09 1.10080294e+09 1.10080296e+09
 1.10080297e+09 1.10080298e+09 1.10080300e+09 1.10080301e+09
 1.10080303e+09 1.10080304e+09 1.10080305e+09 1.10080307e+09
 1.10080308e+09 1.10080309e+09 1.10080311e+09 1.10080312e+09
 1.10080314e+09 1.10080315e+09 1.10080316e+09 1.10080318e+09
 1.10080319e+09 1.10080320e+09 1.10080322e+09 1.10080323e+09
 1.10080324e+09 1.10080326e+09 1.10080327e+09 1.10080329e+09
 1.10080330e+09 1.10080331e+09 1.10080333e+09 1.10080334e+09
 1.10080335e+09 1.10080337e+09 1.10080338e+09 1.10080339e+09
 1.10080341e+09 1.10080342e+09 1.10080344e+09 1.10080345e+09
 1.10080346e+09 1.10080348e+09 1.10080349e+09 1.10080350e+09
 1.10080352e+09 1.10080353e+09 1.10080355e+09 1.10080356e+09
 1.10080357e+09 1.10080359e+09 1.10080360e+09 1.10080361e+09
 1.10080363e+09 1.10080364e+09 1.10080365e+09 1.10080367e+09
 1.10080368e+09 1.10080370e+09 1.10080371e+09 1.10080372e+09
 1.10080374e+09 1.10080375e+09 1.10080376e+09 1.10080378e+09
 1.10080379e+09 1.10080380e+09 1.10080382e+09 1.10080383e+09
 1.10080385e+09 1.10080386e+09 1.10080387e+09 1.10080389e+09
 1.10080390e+09 1.10080391e+09 1.10080393e+09 1.10080394e+09
 1.10080395e+09 1.10080397e+09 1.10080398e+09 1.10080400e+09
 1.10080401e+09 1.10080402e+09 1.10080404e+09 1.10080405e+09
 1.10080406e+09 1.10080408e+09 1.10080409e+09 1.10080411e+09
 1.10080412e+09 1.10080413e+09 1.10080415e+09 1.10080416e+09
 1.10080417e+09 1.10080419e+09 1.10080420e+09 1.10080421e+09
 1.10080423e+09 1.10080424e+09 1.10080426e+09 1.10080427e+09
 1.10080428e+09 1.10080430e+09 1.10080431e+09 1.10080432e+09
 1.10080434e+09 1.10080435e+09 1.10080436e+09 1.10080438e+09
 1.10080439e+09 1.10080441e+09 1.10080442e+09 1.10080443e+09
 1.10080445e+09 1.10080446e+09 1.10080447e+09 1.10080449e+09
 1.10080450e+09 1.10080452e+09 1.10080453e+09 1.10080454e+09
 1.10080456e+09 1.10080457e+09 1.10080458e+09 1.10080460e+09
 1.10080461e+09 1.10080462e+09 1.10080464e+09 1.10080465e+09
 1.10080467e+09 1.10080468e+09 1.10080469e+09 1.10080471e+09
 1.10080472e+09 1.10080473e+09 1.10080475e+09 1.10080476e+09
 1.10080477e+09 1.10080479e+09 1.10080480e+09 1.10080482e+09
 1.10080483e+09 1.10080484e+09 1.10080486e+09 1.10080487e+09
 1.10080488e+09 1.10080490e+09 1.10080491e+09 1.10080493e+09
 1.10080494e+09 1.10080495e+09 1.10080497e+09 1.10080498e+09
 1.10080499e+09 1.10080501e+09 1.10080502e+09 1.10080503e+09
 1.10080505e+09 1.10080506e+09 1.10080508e+09 1.10080509e+09
 1.10080510e+09 1.10080512e+09 1.10080513e+09 1.10080514e+09
 1.10080516e+09 1.10080517e+09 1.10080518e+09 1.10080520e+09
 1.10080521e+09 1.10080523e+09 1.10080524e+09 1.10080525e+09
 1.10080527e+09 1.10080528e+09 1.10080529e+09 1.10080531e+09
 1.10080532e+09 1.10080534e+09 1.10080535e+09 1.10080536e+09
 1.10080538e+09 1.10080539e+09 1.10080540e+09 1.10080542e+09
 1.10080543e+09 1.10080544e+09 1.10080546e+09 1.10080547e+09
 1.10080549e+09 1.10080550e+09 1.10080551e+09 1.10080553e+09
 1.10080554e+09 1.10080555e+09 1.10080557e+09 1.10080558e+09
 1.10080559e+09 1.10080561e+09 1.10080562e+09 1.10080564e+09
 1.10080565e+09 1.10080566e+09 1.10080568e+09 1.10080569e+09
 1.10080570e+09 1.10080572e+09 1.10080573e+09 1.10080574e+09
 1.10080576e+09 1.10080577e+09 1.10080579e+09 1.10080580e+09
 1.10080581e+09 1.10080583e+09 1.10080584e+09 1.10080585e+09
 1.10080587e+09 1.10080588e+09 1.10080590e+09 1.10080591e+09
 1.10080592e+09 1.10080594e+09 1.10080595e+09 1.10080596e+09
 1.10080598e+09 1.10080599e+09 1.10080600e+09 1.10080602e+09
 1.10080603e+09 1.10080605e+09 1.10080606e+09 1.10080607e+09
 1.10080609e+09 1.10080610e+09 1.10080611e+09 1.10080613e+09
 1.10080614e+09 1.10080615e+09 1.10080617e+09 1.10080618e+09
 1.10080620e+09 1.10080621e+09 1.10080622e+09 1.10080624e+09
 1.10080625e+09 1.10080626e+09 1.10080628e+09 1.10080629e+09
 1.10080631e+09 1.10080632e+09 1.10080633e+09 1.10080635e+09
 1.10080636e+09 1.10080637e+09 1.10080639e+09 1.10080640e+09
 1.10080641e+09 1.10080643e+09 1.10080644e+09 1.10080646e+09
 1.10080647e+09 1.10080648e+09 1.10080650e+09 1.10080651e+09
 1.10080652e+09 1.10080654e+09 1.10080655e+09 1.10080656e+09
 1.10080658e+09 1.10080659e+09 1.10080661e+09 1.10080662e+09
 1.10080663e+09 1.10080665e+09 1.10080666e+09 1.10080667e+09
 1.10080669e+09 1.10080670e+09 1.10080672e+09 1.10080673e+09
 1.10080674e+09 1.10080676e+09 1.10080677e+09 1.10080678e+09
 1.10080680e+09 1.10080681e+09 1.10080682e+09 1.10080684e+09
 1.10080685e+09 1.10080687e+09 1.10080688e+09 1.10080689e+09
 1.10080691e+09 1.10080692e+09 1.10080693e+09 1.10080695e+09
 1.10080696e+09 1.10080697e+09 1.10080699e+09 1.10080700e+09
 1.10080702e+09 1.10080703e+09 1.10080704e+09 1.10080706e+09
 1.10080707e+09 1.10080708e+09 1.10080710e+09 1.10080711e+09
 1.10080712e+09 1.10080714e+09 1.10080715e+09 1.10080717e+09
 1.10080718e+09 1.10080719e+09 1.10080721e+09 1.10080722e+09
 1.10080723e+09 1.10080725e+09 1.10080726e+09 1.10080728e+09
 1.10080729e+09 1.10080730e+09 1.10080732e+09 1.10080733e+09
 1.10080734e+09 1.10080736e+09 1.10080737e+09 1.10080738e+09
 1.10080740e+09 1.10080741e+09 1.10080743e+09 1.10080744e+09
 1.10080745e+09 1.10080747e+09 1.10080748e+09 1.10080749e+09
 1.10080751e+09 1.10080752e+09 1.10080753e+09 1.10080755e+09
 1.10080756e+09 1.10080758e+09 1.10080759e+09 1.10080760e+09
 1.10080762e+09 1.10080763e+09 1.10080764e+09 1.10080766e+09
 1.10080767e+09 1.10080769e+09 1.10080770e+09 1.10080771e+09
 1.10080773e+09 1.10080774e+09 1.10080775e+09 1.10080777e+09
 1.10080778e+09 1.10080779e+09 1.10080781e+09 1.10080782e+09
 1.10080784e+09 1.10080785e+09 1.10080786e+09 1.10080788e+09
 1.10080789e+09 1.10080790e+09 1.10080792e+09 1.10080793e+09
 1.10080794e+09 1.10080796e+09 1.10080797e+09 1.10080799e+09
 1.10080800e+09 1.10080801e+09 1.10080803e+09 1.10080804e+09
 1.10080805e+09 1.10080807e+09 1.10080808e+09 1.10080810e+09
 1.10080811e+09 1.10080812e+09 1.10080814e+09 1.10080815e+09
 1.10080816e+09 1.10080818e+09 1.10080819e+09 1.10080820e+09
 1.10080822e+09 1.10080823e+09 1.10080825e+09 1.10080826e+09
 1.10080827e+09 1.10080829e+09 1.10080830e+09 1.10080831e+09
 1.10080833e+09 1.10080834e+09 1.10080835e+09 1.10080837e+09
 1.10080838e+09 1.10080840e+09 1.10080841e+09 1.10080842e+09
 1.10080844e+09 1.10080845e+09 1.10080846e+09 1.10080848e+09
 1.10080849e+09 1.10080850e+09 1.10080852e+09 1.10080853e+09
 1.10080855e+09 1.10080856e+09 1.10080857e+09 1.10080859e+09
 1.10080860e+09 1.10080861e+09 1.10080863e+09 1.10080864e+09
 1.10080866e+09 1.10080867e+09 1.10080868e+09 1.10080870e+09
 1.10080871e+09 1.10080872e+09 1.10080874e+09 1.10080875e+09
 1.10080876e+09 1.10080878e+09 1.10080879e+09 1.10080881e+09
 1.10080882e+09 1.10080883e+09 1.10080885e+09 1.10080886e+09
 1.10080887e+09 1.10080889e+09 1.10080890e+09 1.10080891e+09
 1.10080893e+09 1.10080894e+09 1.10080896e+09 1.10080897e+09
 1.10080898e+09 1.10080900e+09 1.10080901e+09 1.10080902e+09
 1.10080904e+09 1.10080905e+09 1.10080907e+09 1.10080908e+09
 1.10080909e+09 1.10080911e+09 1.10080912e+09 1.10080913e+09
 1.10080915e+09 1.10080916e+09 1.10080917e+09 1.10080919e+09
