name =JUICE_ROI_GAN_5_0_09
flyby = ['2034 SEP 28 18:48:51', '2034 SEP 29 18:48:51']
Observation TW = <SpiceCell dtype = 1, length = 0, size = 3400, card = 14, is_set = 1, adjust = 0, init = 1, base = 93924625909808, data = 93924625909856>
Res(t) = [1.66311596 1.66107307 1.65903311 1.65699609 1.65496203 1.65293092
 1.65090277 1.64887759 1.64685537 1.64483613 1.64281988 1.64080661
 1.63879633 1.63678905 1.63478478 1.63278351 1.63078526 1.62879003
 1.62679782 1.62480865 1.62282251 1.62083941 1.61885936 1.61688237
 1.61490843 1.61293756 1.61096975 1.60900502 1.60704338 1.60508481
 1.60312935 1.60117697 1.59922771 1.59728155 1.5953385  1.59339858
 1.59146178 1.58952811 1.58759758 1.5856702  1.58374596 1.58182487
 1.57990695 1.57799219 1.5760806  1.57417219 1.57226696 1.57036492
 1.56846607 1.56657042 1.56467798 1.56278875 1.56090273 1.55901994
 1.55714037 1.55526404 1.55339095 1.5515211  1.54965451 1.54779117
 1.54593109 1.54407428 1.54222074 1.54037049 1.53852352 1.53667983
 1.53483945 1.53300237 1.5311686  1.52933814 1.527511   1.52568718
 1.5238667  1.52204955 1.52023575 1.51842529 1.51661819 1.51481445
 1.51301407 1.51121706 1.50942343 1.50763319 1.50584633 1.50406286
 1.5022828  1.50050614 1.49873289 1.49696306 1.49519665 1.49343367
 1.49167412 1.48991801 1.48816535 1.48641614 1.48467039 1.4829281
 1.48118927 1.47945392 1.47772205 1.47599366 1.47426877 1.47254737
 1.47082947 1.46911508 1.46740421 1.46569685 1.46399302 1.46229271
 1.46059595 1.45890272 1.45721304 1.45552691 1.45384434 1.45216534
 1.4504899  1.44881804 1.44714947 1.44548472 1.44382356 1.44216599
 1.44051202 1.43886166 1.43721491 1.43557178 1.43393227 1.43229639
 1.43066414 1.42903553 1.42741056 1.42578924 1.42417158 1.42255758
 1.42094724 1.41934057 1.41773758 1.41613827 1.41454264 1.41295071
 1.41136247 1.40977794 1.40819711 1.40661999 1.40504659 1.40347692
 1.40191097 1.40034876 1.39879028 1.39723555 1.39568456 1.39413733
 1.39259385 1.39105414 1.3895182  1.38798603 1.38645764 1.38493304
 1.38341222 1.38189519 1.38038197 1.37887254 1.37736692 1.37586512
 1.37436713 1.37287297 1.37138263 1.36989613 1.36841346 1.36693463
 1.36545965 1.36398852 1.36252125 1.36105784 1.35959829 1.35814261
 1.3566908  1.35524287 1.35379883 1.35235867 1.35092241 1.34949004
 1.34806157 1.34663701 1.34521636 1.34379962 1.3423868  1.34097791
 1.33957294 1.3381719  1.3367748  1.33538164 1.33399242 1.33260715
 1.33122584 1.32984848 1.32847508 1.32710565 1.32574018 1.32437869
 1.32302118 1.32166764 1.3203181  1.31897254 1.31763097 1.3162934
 1.31495983 1.31363027 1.31230471 1.31098317 1.30966564 1.30835213
 1.30704264 1.30573718 1.30443575 1.30313835 1.30184499 1.30055567
 1.2992704  1.29798917 1.296712   1.29543887 1.29416981 1.29290481
 1.29164387 1.290387   1.28913421 1.28788548 1.28664084 1.28540027
 1.28416379 1.28293139 1.28170309 1.28047888 1.27925876 1.27804274
 1.27683083 1.27562302 1.27441931 1.27321972 1.27202424 1.27083287
 1.26964563 1.2684625  1.2672835  1.26610863 1.26493788 1.26377127
 1.26260879 1.26145044 1.26029624 1.25914617 1.25800025 1.25685848
 1.25572085 1.25458738 1.25345806 1.25233289 1.25121188 1.25009503
 1.24898234 1.24787381 1.24676945 1.24566925 1.24457323 1.24348137
 1.24239369 1.24131018 1.24023085 1.2391557  1.23808472 1.23701793
 1.23595532 1.2348969  1.23384266 1.23279261 1.23174674 1.23070507
 1.22966759 1.2286343  1.22760521 1.22658031 1.22555961 1.22454311
 1.22353081 1.2225227  1.2215188  1.2205191  1.2195236  1.21853231
 1.21754522 1.21656234 1.21558367 1.2146092  1.21363894 1.21267289
 1.21171105 1.21075342 1.2098     1.20885079 1.20790579 1.206965
 1.20602843 1.20509607 1.20416792 1.20324399 1.20232427 1.20140876
 1.20049747 1.19959039 1.19868752 1.19778887 1.19689443 1.19600421
 1.1951182  1.1942364  1.19335882 1.19248545 1.19161629 1.19075135
 1.18989062 1.1890341  1.18818179 1.18733369 1.1864898  1.18565012
 1.18481465 1.18398339 1.18315633 1.18233349 1.18151485 1.18070041
 1.17989018 1.17908415 1.17828232 1.1774847  1.17669127 1.17590205
 1.17511702 1.17433619 1.17355955 1.17278711 1.17201886 1.17125481
 1.17049494 1.16973926 1.16898777 1.16824047 1.16749734 1.1667584
 1.16602365 1.16529307 1.16456667 1.16384444 1.16312639 1.1624125
 1.16170279 1.16099725 1.16029587 1.15959866 1.1589056  1.15821671
 1.15753198 1.1568514  1.15617497 1.15550269 1.15483456 1.15417058
 1.15351074 1.15285504 1.15220347 1.15155605 1.15091275 1.15027359
 1.14963856 1.14900765 1.14838086 1.14775819 1.14713964 1.1465252
 1.14591487 1.14530865 1.14470654 1.14410852 1.14351461 1.14292479
 1.14233906 1.14175742 1.14117986 1.14060639 1.140037   1.13947168
 1.13891043 1.13835325 1.13780014 1.13725109 1.1367061  1.13616516
 1.13562827 1.13509542 1.13456662 1.13404186 1.13352114 1.13300444
 1.13249178 1.13198313 1.13147851 1.1309779  1.1304813  1.12998871
 1.12950013 1.12901554 1.12853495 1.12805834 1.12758572 1.12711709
 1.12665243 1.12619174 1.12573503 1.12528227 1.12483348 1.12438864
 1.12394775 1.1235108  1.1230778  1.12264873 1.12222359 1.12180238
 1.12138509 1.12097172 1.12056226 1.12015671 1.11975506 1.1193573
 1.11896344 1.11857346 1.11818736 1.11780515 1.1174268  1.11705232
 1.11668169 1.11631493 1.11595201 1.11559294 1.11523771 1.11488631
 1.11453874 1.11419499 1.11385506 1.11351894 1.11318663 1.11285812
 1.1125334  1.11221248 1.11189533 1.11158197 1.11127237 1.11096654
 1.11066447 1.11036616 1.11007159 1.10978077 1.10949368 1.10921033
 1.1089307  1.10865478 1.10838258 1.10811409 1.10784929 1.10758819
 1.10733078 1.10707704 1.10682699 1.1065806  1.10633787 1.1060988
 1.10586338 1.1056316  1.10540346 1.10517895 1.10495807 1.1047408
 1.10452714 1.10431709 1.10411063 1.10390776 1.10370848 1.10351278
 1.10332065 1.10313208 1.10294707 1.10276561 1.1025877  1.10241332
 1.10224247 1.10207514 1.10191134 1.10175104 1.10159424 1.10144094
 1.10129113 1.1011448  1.10100194 1.10086256 1.10072663 1.10059415
 1.10046513 1.10033954 1.10021738 1.10009865 1.09998333 1.09987143
 1.09976293 1.09965782 1.09955611 1.09945777 1.09936281 1.09927122
 1.09918298 1.0990981  1.09901656 1.09893836 1.09886348 1.09879193
 1.0987237  1.09865877 1.09859714 1.0985388  1.09848375 1.09843198
 1.09838347 1.09833823 1.09829624 1.0982575  1.09822199 1.09818972
 1.09816067 1.09813484 1.09811221 1.09809279 1.09807656 1.09806352
 1.09805365 1.09804695 1.09804342 1.09804303 1.0980458  1.0980517
 1.09806074 1.09807289 1.09808816 1.09810654 1.09812802 1.09815259
 1.09818024 1.09821097 1.09824477 1.09828162 1.09832153 1.09836448
 1.09841047 1.09845949 1.09851152 1.09856657 1.09862462 1.09868567
 1.09874971 1.09881672 1.09888671 1.09895966 1.09903557 1.09911442
 1.09919622 1.09928094 1.09936859 1.09945916 1.09955263 1.09964901
 1.09974827 1.09985042 1.09995544 1.10006333 1.10017407 1.10028767
 1.10040411 1.10052339 1.10064549 1.10077041 1.10089814 1.10102867
 1.10116199 1.1012981  1.10143699 1.10157865 1.10172306 1.10187023
 1.10202015 1.1021728  1.10232818 1.10248628 1.10264709 1.10281061
 1.10297682 1.10314572 1.10331729 1.10349154 1.10366845 1.10384802
 1.10403023 1.10421508 1.10440256 1.10459267 1.10478538 1.1049807
 1.10517862 1.10537913 1.10558222 1.10578788 1.10599611 1.10620689
 1.10642022 1.10663609 1.1068545  1.10707542 1.10729886 1.10752481
 1.10775326 1.1079842  1.10821762 1.10845352 1.10869188 1.1089327
 1.10917597 1.10942169 1.10966984 1.10992041 1.1101734  1.1104288
 1.1106866  1.1109468  1.11120938 1.11147433 1.11174166 1.11201135
 1.11228339 1.11255777 1.11283449 1.11311354 1.11339491 1.1136786
 1.11396458 1.11425287 1.11454344 1.11483629 1.11513141 1.1154288
 1.11572845 1.11603034 1.11633447 1.11664084 1.11694943 1.11726023
 1.11757325 1.11788846 1.11820587 1.11852546 1.11884723 1.11917116
 1.11949726 1.11982551 1.1201559  1.12048843 1.1208231  1.12115988
 1.12149877 1.12183977 1.12218287 1.12252806 1.12287533 1.12322468
 1.12357609 1.12392956 1.12428508 1.12464265 1.12500225 1.12536387
 1.12572752 1.12609318 1.12646085 1.12683051 1.12720216 1.12757579
 1.1279514  1.12832897 1.1287085  1.12908998 1.12947341 1.12985877
 1.13024606 1.13063527 1.13102639 1.13141942 1.13181435 1.13221116
 1.13260986 1.13301044 1.13341288 1.13381718 1.13422334 1.13463134
 1.13504118 1.13545285 1.13586634 1.13628165 1.13669877 1.13711769
 1.13753841 1.1379609  1.13838518 1.13881123 1.13923905 1.13966862
 1.14009995 1.14053301 1.14096781 1.14140434 1.14184259 1.14228256
 1.14272423 1.1431676  1.14361267 1.14405941 1.14450784 1.14495794
 1.1454097  1.14586312 1.14631819 1.14677491 1.14723325 1.14769323
 1.14815483 1.14861805 1.14908287 1.14954929 1.15001731 1.15048692
 1.1509581  1.15143086 1.15190519 1.15238107 1.15285851 1.1533375
 1.15381802 1.15430008 1.15478366 1.15526876 1.15575538 1.1562435
 1.15673312 1.15722423 1.15771683 1.15821091 1.15870646 1.15920347
 1.15970195 1.16020187 1.16070325 1.16120606 1.16171031 1.16221598
 1.16272307 1.16323158 1.16374149 1.16425281 1.16476552 1.16527961
 1.16579509 1.16631195 1.16683017 1.16734976 1.1678707  1.16839299
 1.16891663 1.1694416  1.16996791 1.17049554 1.17102449 1.17155475
 1.17208632 1.17261919 1.17315335 1.1736888  1.17422554 1.17476355
 1.17530283 1.17584337 1.17638518 1.17692823 1.17747253 1.17801807
 1.17856485 1.17911285 1.17966208 1.18021252 1.18076417 1.18131703
 1.18187108 1.18242633 1.18298277 1.18354039 1.18409919 1.18465915
 1.18522028 1.18578257 1.18634601 1.1869106  1.18747633 1.1880432
 1.18861119 1.18918032 1.18975056 1.19032191 1.19089438 1.19146795
 1.19204261 1.19261837 1.19319521 1.19377314 1.19435214 1.19493221
 1.19551334 1.19609554 1.19667879 1.19726309 1.19784843 1.19843481
 1.19902223 1.19961067 1.20020013 1.20079062 1.20138211 1.20197461
 1.20256812 1.20316262 1.20375812 1.2043546  1.20495206 1.2055505
 1.20614991 1.20675029 1.20735163 1.20795392 1.20855717 1.20916137
 1.2097665  1.21037258 1.21097959 1.21158752 1.21219638 1.21280615
 1.21341684 1.21402844 1.21464094 1.21525434 1.21586863 1.21648381
 1.21709988 1.21771683 1.21833465 1.21895335 1.21957291 1.22019333
 1.22081461 1.22143674 1.22205973 1.22268355 1.22330821 1.22393371
 1.22456004 1.2251872  1.22581517 1.22644397 1.22707357 1.22770399
 1.22833521 1.22896723 1.22960004 1.23023365 1.23086804 1.23150322
 1.23213917 1.2327759  1.2334134  1.23405167 1.2346907  1.23533048
 1.23597102 1.23661231 1.23725435 1.23789713 1.23854064 1.23918489
 1.23982987 1.24047558 1.241122   1.24176915 1.24241701 1.24306558
 1.24371485 1.24436483 1.24501551 1.24566688 1.24631895 1.2469717
 1.24762513 1.24827925 1.24893404 1.2495895  1.25024564 1.25090244
 1.2515599  1.25221801 1.25287679 1.25353621 1.25419628 1.254857
 1.25551835 1.25618035 1.25684297 1.25750623 1.25817011 1.25883462
 1.25949974 1.26016548 1.26083184 1.2614988  1.26216638 1.26283455
 1.26350333 1.2641727  1.26484266 1.26551321 1.26618436 1.26685608
 1.26752839 1.26820127 1.26887473 1.26954876 1.27022335 1.27089851
 1.27157424 1.27225052 1.27292736 1.27360475 1.27428269 1.27496118
 1.27564021 1.27631978 1.2769999  1.27768054 1.27836172 1.27904343
 1.27972567 1.28040843 1.28109171 1.28177551 1.28245982 1.28314465
 1.28382999 1.28451584 1.28520219 1.28588904 1.28657639 1.28726424
 1.28795259 1.28864142 1.28933075 1.29002056 1.29071085 1.29140163
 1.29209289 1.29278462 1.29347683 1.2941695  1.29486265 1.29555627
 1.29625034 1.29694489 1.29763989 1.29833534 1.29903126 1.29972762
 1.30042444 1.30112171 1.30181942 1.30251757 1.30321617 1.3039152
 1.30461468 1.30531458 1.30601493 1.3067157 ]
t = [1.09635420e+09 1.09635429e+09 1.09635437e+09 1.09635446e+09
 1.09635455e+09 1.09635463e+09 1.09635472e+09 1.09635481e+09
 1.09635489e+09 1.09635498e+09 1.09635507e+09 1.09635515e+09
 1.09635524e+09 1.09635532e+09 1.09635541e+09 1.09635550e+09
 1.09635558e+09 1.09635567e+09 1.09635576e+09 1.09635584e+09
 1.09635593e+09 1.09635602e+09 1.09635610e+09 1.09635619e+09
 1.09635628e+09 1.09635636e+09 1.09635645e+09 1.09635654e+09
 1.09635662e+09 1.09635671e+09 1.09635679e+09 1.09635688e+09
 1.09635697e+09 1.09635705e+09 1.09635714e+09 1.09635723e+09
 1.09635731e+09 1.09635740e+09 1.09635749e+09 1.09635757e+09
 1.09635766e+09 1.09635775e+09 1.09635783e+09 1.09635792e+09
 1.09635801e+09 1.09635809e+09 1.09635818e+09 1.09635827e+09
 1.09635835e+09 1.09635844e+09 1.09635852e+09 1.09635861e+09
 1.09635870e+09 1.09635878e+09 1.09635887e+09 1.09635896e+09
 1.09635904e+09 1.09635913e+09 1.09635922e+09 1.09635930e+09
 1.09635939e+09 1.09635948e+09 1.09635956e+09 1.09635965e+09
 1.09635974e+09 1.09635982e+09 1.09635991e+09 1.09635999e+09
 1.09636008e+09 1.09636017e+09 1.09636025e+09 1.09636034e+09
 1.09636043e+09 1.09636051e+09 1.09636060e+09 1.09636069e+09
 1.09636077e+09 1.09636086e+09 1.09636095e+09 1.09636103e+09
 1.09636112e+09 1.09636121e+09 1.09636129e+09 1.09636138e+09
 1.09636147e+09 1.09636155e+09 1.09636164e+09 1.09636172e+09
 1.09636181e+09 1.09636190e+09 1.09636198e+09 1.09636207e+09
 1.09636216e+09 1.09636224e+09 1.09636233e+09 1.09636242e+09
 1.09636250e+09 1.09636259e+09 1.09636268e+09 1.09636276e+09
 1.09636285e+09 1.09636294e+09 1.09636302e+09 1.09636311e+09
 1.09636319e+09 1.09636328e+09 1.09636337e+09 1.09636345e+09
 1.09636354e+09 1.09636363e+09 1.09636371e+09 1.09636380e+09
 1.09636389e+09 1.09636397e+09 1.09636406e+09 1.09636415e+09
 1.09636423e+09 1.09636432e+09 1.09636441e+09 1.09636449e+09
 1.09636458e+09 1.09636467e+09 1.09636475e+09 1.09636484e+09
 1.09636492e+09 1.09636501e+09 1.09636510e+09 1.09636518e+09
 1.09636527e+09 1.09636536e+09 1.09636544e+09 1.09636553e+09
 1.09636562e+09 1.09636570e+09 1.09636579e+09 1.09636588e+09
 1.09636596e+09 1.09636605e+09 1.09636614e+09 1.09636622e+09
 1.09636631e+09 1.09636639e+09 1.09636648e+09 1.09636657e+09
 1.09636665e+09 1.09636674e+09 1.09636683e+09 1.09636691e+09
 1.09636700e+09 1.09636709e+09 1.09636717e+09 1.09636726e+09
 1.09636735e+09 1.09636743e+09 1.09636752e+09 1.09636761e+09
 1.09636769e+09 1.09636778e+09 1.09636787e+09 1.09636795e+09
 1.09636804e+09 1.09636812e+09 1.09636821e+09 1.09636830e+09
 1.09636838e+09 1.09636847e+09 1.09636856e+09 1.09636864e+09
 1.09636873e+09 1.09636882e+09 1.09636890e+09 1.09636899e+09
 1.09636908e+09 1.09636916e+09 1.09636925e+09 1.09636934e+09
 1.09636942e+09 1.09636951e+09 1.09636959e+09 1.09636968e+09
 1.09636977e+09 1.09636985e+09 1.09636994e+09 1.09637003e+09
 1.09637011e+09 1.09637020e+09 1.09637029e+09 1.09637037e+09
 1.09637046e+09 1.09637055e+09 1.09637063e+09 1.09637072e+09
 1.09637081e+09 1.09637089e+09 1.09637098e+09 1.09637107e+09
 1.09637115e+09 1.09637124e+09 1.09637132e+09 1.09637141e+09
 1.09637150e+09 1.09637158e+09 1.09637167e+09 1.09637176e+09
 1.09637184e+09 1.09637193e+09 1.09637202e+09 1.09637210e+09
 1.09637219e+09 1.09637228e+09 1.09637236e+09 1.09637245e+09
 1.09637254e+09 1.09637262e+09 1.09637271e+09 1.09637279e+09
 1.09637288e+09 1.09637297e+09 1.09637305e+09 1.09637314e+09
 1.09637323e+09 1.09637331e+09 1.09637340e+09 1.09637349e+09
 1.09637357e+09 1.09637366e+09 1.09637375e+09 1.09637383e+09
 1.09637392e+09 1.09637401e+09 1.09637409e+09 1.09637418e+09
 1.09637427e+09 1.09637435e+09 1.09637444e+09 1.09637452e+09
 1.09637461e+09 1.09637470e+09 1.09637478e+09 1.09637487e+09
 1.09637496e+09 1.09637504e+09 1.09637513e+09 1.09637522e+09
 1.09637530e+09 1.09637539e+09 1.09637548e+09 1.09637556e+09
 1.09637565e+09 1.09637574e+09 1.09637582e+09 1.09637591e+09
 1.09637599e+09 1.09637608e+09 1.09637617e+09 1.09637625e+09
 1.09637634e+09 1.09637643e+09 1.09637651e+09 1.09637660e+09
 1.09637669e+09 1.09637677e+09 1.09637686e+09 1.09637695e+09
 1.09637703e+09 1.09637712e+09 1.09637721e+09 1.09637729e+09
 1.09637738e+09 1.09637747e+09 1.09637755e+09 1.09637764e+09
 1.09637772e+09 1.09637781e+09 1.09637790e+09 1.09637798e+09
 1.09637807e+09 1.09637816e+09 1.09637824e+09 1.09637833e+09
 1.09637842e+09 1.09637850e+09 1.09637859e+09 1.09637868e+09
 1.09637876e+09 1.09637885e+09 1.09637894e+09 1.09637902e+09
 1.09637911e+09 1.09637919e+09 1.09637928e+09 1.09637937e+09
 1.09637945e+09 1.09637954e+09 1.09637963e+09 1.09637971e+09
 1.09637980e+09 1.09637989e+09 1.09637997e+09 1.09638006e+09
 1.09638015e+09 1.09638023e+09 1.09638032e+09 1.09638041e+09
 1.09638049e+09 1.09638058e+09 1.09638067e+09 1.09638075e+09
 1.09638084e+09 1.09638092e+09 1.09638101e+09 1.09638110e+09
 1.09638118e+09 1.09638127e+09 1.09638136e+09 1.09638144e+09
 1.09638153e+09 1.09638162e+09 1.09638170e+09 1.09638179e+09
 1.09638188e+09 1.09638196e+09 1.09638205e+09 1.09638214e+09
 1.09638222e+09 1.09638231e+09 1.09638239e+09 1.09638248e+09
 1.09638257e+09 1.09638265e+09 1.09638274e+09 1.09638283e+09
 1.09638291e+09 1.09638300e+09 1.09638309e+09 1.09638317e+09
 1.09638326e+09 1.09638335e+09 1.09638343e+09 1.09638352e+09
 1.09638361e+09 1.09638369e+09 1.09638378e+09 1.09638387e+09
 1.09638395e+09 1.09638404e+09 1.09638412e+09 1.09638421e+09
 1.09638430e+09 1.09638438e+09 1.09638447e+09 1.09638456e+09
 1.09638464e+09 1.09638473e+09 1.09638482e+09 1.09638490e+09
 1.09638499e+09 1.09638508e+09 1.09638516e+09 1.09638525e+09
 1.09638534e+09 1.09638542e+09 1.09638551e+09 1.09638559e+09
 1.09638568e+09 1.09638577e+09 1.09638585e+09 1.09638594e+09
 1.09638603e+09 1.09638611e+09 1.09638620e+09 1.09638629e+09
 1.09638637e+09 1.09638646e+09 1.09638655e+09 1.09638663e+09
 1.09638672e+09 1.09638681e+09 1.09638689e+09 1.09638698e+09
 1.09638707e+09 1.09638715e+09 1.09638724e+09 1.09638732e+09
 1.09638741e+09 1.09638750e+09 1.09638758e+09 1.09638767e+09
 1.09638776e+09 1.09638784e+09 1.09638793e+09 1.09638802e+09
 1.09638810e+09 1.09638819e+09 1.09638828e+09 1.09638836e+09
 1.09638845e+09 1.09638854e+09 1.09638862e+09 1.09638871e+09
 1.09638879e+09 1.09638888e+09 1.09638897e+09 1.09638905e+09
 1.09638914e+09 1.09638923e+09 1.09638931e+09 1.09638940e+09
 1.09638949e+09 1.09638957e+09 1.09638966e+09 1.09638975e+09
 1.09638983e+09 1.09638992e+09 1.09639001e+09 1.09639009e+09
 1.09639018e+09 1.09639027e+09 1.09639035e+09 1.09639044e+09
 1.09639052e+09 1.09639061e+09 1.09639070e+09 1.09639078e+09
 1.09639087e+09 1.09639096e+09 1.09639104e+09 1.09639113e+09
 1.09639122e+09 1.09639130e+09 1.09639139e+09 1.09639148e+09
 1.09639156e+09 1.09639165e+09 1.09639174e+09 1.09639182e+09
 1.09639191e+09 1.09639199e+09 1.09639208e+09 1.09639217e+09
 1.09639225e+09 1.09639234e+09 1.09639243e+09 1.09639251e+09
 1.09639260e+09 1.09639269e+09 1.09639277e+09 1.09639286e+09
 1.09639295e+09 1.09639303e+09 1.09639312e+09 1.09639321e+09
 1.09639329e+09 1.09639338e+09 1.09639347e+09 1.09639355e+09
 1.09639364e+09 1.09639372e+09 1.09639381e+09 1.09639390e+09
 1.09639398e+09 1.09639407e+09 1.09639416e+09 1.09639424e+09
 1.09639433e+09 1.09639442e+09 1.09639450e+09 1.09639459e+09
 1.09639468e+09 1.09639476e+09 1.09639485e+09 1.09639494e+09
 1.09639502e+09 1.09639511e+09 1.09639519e+09 1.09639528e+09
 1.09639537e+09 1.09639545e+09 1.09639554e+09 1.09639563e+09
 1.09639571e+09 1.09639580e+09 1.09639589e+09 1.09639597e+09
 1.09639606e+09 1.09639615e+09 1.09639623e+09 1.09639632e+09
 1.09639641e+09 1.09639649e+09 1.09639658e+09 1.09639667e+09
 1.09639675e+09 1.09639684e+09 1.09639692e+09 1.09639701e+09
 1.09639710e+09 1.09639718e+09 1.09639727e+09 1.09639736e+09
 1.09639744e+09 1.09639753e+09 1.09639762e+09 1.09639770e+09
 1.09639779e+09 1.09639788e+09 1.09639796e+09 1.09639805e+09
 1.09639814e+09 1.09639822e+09 1.09639831e+09 1.09639839e+09
 1.09639848e+09 1.09639857e+09 1.09639865e+09 1.09639874e+09
 1.09639883e+09 1.09639891e+09 1.09639900e+09 1.09639909e+09
 1.09639917e+09 1.09639926e+09 1.09639935e+09 1.09639943e+09
 1.09639952e+09 1.09639961e+09 1.09639969e+09 1.09639978e+09
 1.09639987e+09 1.09639995e+09 1.09640004e+09 1.09640012e+09
 1.09640021e+09 1.09640030e+09 1.09640038e+09 1.09640047e+09
 1.09640056e+09 1.09640064e+09 1.09640073e+09 1.09640082e+09
 1.09640090e+09 1.09640099e+09 1.09640108e+09 1.09640116e+09
 1.09640125e+09 1.09640134e+09 1.09640142e+09 1.09640151e+09
 1.09640159e+09 1.09640168e+09 1.09640177e+09 1.09640185e+09
 1.09640194e+09 1.09640203e+09 1.09640211e+09 1.09640220e+09
 1.09640229e+09 1.09640237e+09 1.09640246e+09 1.09640255e+09
 1.09640263e+09 1.09640272e+09 1.09640281e+09 1.09640289e+09
