name =JUICE_ROI_GAN_4_6_02
flyby = ['2034 SEP 07 06:03:51', '2034 SEP 08 06:03:51']
Observation TW = <SpiceCell dtype = 1, length = 0, size = 3400, card = 14, is_set = 1, adjust = 0, init = 1, base = 94073126541184, data = 94073126541232>
Res(t) = [1.55619806 1.55408662 1.55197805 1.54987236 1.54776956 1.54566964
 1.54357263 1.54147851 1.5393873  1.537299   1.53521362 1.53313117
 1.53105164 1.52897504 1.52690139 1.52483068 1.52276292 1.52069812
 1.51863628 1.51657741 1.51452151 1.51246859 1.51041865 1.5083717
 1.50632776 1.50428681 1.50224887 1.50021394 1.49818203 1.49615315
 1.4941273  1.49210448 1.49008471 1.48806799 1.48605432 1.48404371
 1.48203616 1.48003169 1.4780303  1.47603198 1.47403676 1.47204464
 1.47005561 1.4680697  1.46608689 1.46410721 1.46213065 1.46015722
 1.45818694 1.45621979 1.4542558  1.45229496 1.45033728 1.44838277
 1.44643144 1.44448329 1.44253832 1.44059654 1.43865797 1.4367226
 1.43479044 1.4328615  1.43093578 1.4290133  1.42709405 1.42517804
 1.42326528 1.42135577 1.41944953 1.41754656 1.41564685 1.41375043
 1.4118573  1.40996746 1.40808092 1.40619768 1.40431775 1.40244115
 1.40056787 1.39869792 1.3968313  1.39496803 1.39310812 1.39125155
 1.38939835 1.38754852 1.38570207 1.383859   1.38201931 1.38018303
 1.37835014 1.37652066 1.3746946  1.37287195 1.37105274 1.36923696
 1.36742462 1.36561572 1.36381028 1.3620083  1.36020979 1.35841474
 1.35662318 1.35483511 1.35305052 1.35126944 1.34949185 1.34771779
 1.34594724 1.34418021 1.34241672 1.34065676 1.33890035 1.33714749
 1.33539818 1.33365244 1.33191027 1.33017168 1.32843667 1.32670525
 1.32497743 1.32325321 1.3215326  1.31981561 1.31810224 1.31639249
 1.31468639 1.31298392 1.31128511 1.30958994 1.30789844 1.30621061
 1.30452646 1.30284598 1.30116919 1.29949609 1.2978267  1.29616101
 1.29449904 1.29284078 1.29118625 1.28953545 1.2878884  1.28624508
 1.28460552 1.28296972 1.28133768 1.27970942 1.27808493 1.27646422
 1.27484731 1.27323419 1.27162487 1.27001937 1.26841767 1.26681981
 1.26522576 1.26363556 1.26204919 1.26046667 1.25888801 1.2573132
 1.25574226 1.25417519 1.252612   1.2510527  1.24949728 1.24794577
 1.24639815 1.24485445 1.24331466 1.24177879 1.24024685 1.23871884
 1.23719477 1.23567465 1.23415848 1.23264627 1.23113802 1.22963375
 1.22813345 1.22663713 1.2251448  1.22365646 1.22217212 1.22069179
 1.21921547 1.21774316 1.21627489 1.21481063 1.21335042 1.21189424
 1.21044212 1.20899404 1.20755002 1.20611007 1.20467418 1.20324237
 1.20181465 1.200391   1.19897145 1.197556   1.19614465 1.19473741
 1.19333428 1.19193527 1.19054039 1.18914964 1.18776302 1.18638055
 1.18500222 1.18362805 1.18225803 1.18089217 1.17953049 1.17817297
 1.17681964 1.17547048 1.17412552 1.17278475 1.17144818 1.17011581
 1.16878766 1.16746371 1.16614399 1.16482849 1.16351722 1.16221018
 1.16090738 1.15960883 1.15831452 1.15702447 1.15573868 1.15445714
 1.15317988 1.15190689 1.15063817 1.14937374 1.14811359 1.14685773
 1.14560617 1.1443589  1.14311594 1.14187729 1.14064295 1.13941293
 1.13818723 1.13696586 1.13574881 1.1345361  1.13332772 1.13212369
 1.13092401 1.12972867 1.12853769 1.12735107 1.12616881 1.12499091
 1.12381739 1.12264824 1.12148347 1.12032307 1.11916707 1.11801545
 1.11686822 1.11572539 1.11458696 1.11345294 1.11232332 1.1111981
 1.11007731 1.10896093 1.10784896 1.10674143 1.10563831 1.10453963
 1.10344538 1.10235557 1.10127019 1.10018926 1.09911277 1.09804073
 1.09697314 1.09591001 1.09485133 1.09379711 1.09274735 1.09170206
 1.09066123 1.08962487 1.08859299 1.08756558 1.08654264 1.08552419
 1.08451022 1.08350073 1.08249573 1.08149521 1.08049919 1.07950766
 1.07852063 1.07753809 1.07656006 1.07558652 1.07461749 1.07365296
 1.07269293 1.07173742 1.07078641 1.06983992 1.06889794 1.06796048
 1.06702753 1.0660991  1.06517519 1.0642558  1.06334093 1.06243058
 1.06152476 1.06062346 1.05972669 1.05883445 1.05794674 1.05706355
 1.0561849  1.05531078 1.05444119 1.05357613 1.05271561 1.05185962
 1.05100816 1.05016124 1.04931886 1.04848101 1.0476477  1.04681893
 1.0459947  1.045175   1.04435984 1.04354922 1.04274313 1.04194159
 1.04114458 1.04035211 1.03956418 1.03878079 1.03800193 1.03722761
 1.03645783 1.03569259 1.03493188 1.03417571 1.03342407 1.03267696
 1.03193439 1.03119636 1.03046285 1.02973388 1.02900944 1.02828953
 1.02757414 1.02686329 1.02615696 1.02545516 1.02475788 1.02406513
 1.02337689 1.02269318 1.02201399 1.02133931 1.02066915 1.02000351
 1.01934238 1.01868576 1.01803365 1.01738605 1.01674295 1.01610436
 1.01547027 1.01484068 1.01421559 1.013595   1.0129789  1.01236729
 1.01176018 1.01115755 1.0105594  1.00996574 1.00937656 1.00879185
 1.00821162 1.00763586 1.00706458 1.00649776 1.0059354  1.00537751
 1.00482407 1.00427509 1.00373056 1.00319049 1.00265485 1.00212367
 1.00159692 1.00107461 1.00055673 1.00004328 0.99953427 0.99902967
 0.99852949 0.99803373 0.99754239 0.99705545 0.99657291 0.99609478
 0.99562105 0.99515171 0.99468676 0.9942262  0.99377002 0.99331821
 0.99287078 0.99242772 0.99198903 0.9915547  0.99112472 0.9906991
 0.99027782 0.98986089 0.98944829 0.98904003 0.98863611 0.9882365
 0.98784122 0.98745025 0.98706359 0.98668124 0.98630319 0.98592944
 0.98555997 0.9851948  0.9848339  0.98447728 0.98412493 0.98377685
 0.98343303 0.98309346 0.98275814 0.98242706 0.98210022 0.98177762
 0.98145924 0.98114509 0.98083515 0.98052942 0.98022789 0.97993057
 0.97963744 0.97934849 0.97906373 0.97878314 0.97850672 0.97823446
 0.97796636 0.97770241 0.97744261 0.97718694 0.97693541 0.976688
 0.97644471 0.97620554 0.97597047 0.9757395  0.97551263 0.97528984
 0.97507113 0.9748565  0.97464593 0.97443943 0.97423698 0.97403857
 0.97384421 0.97365388 0.97346757 0.97328529 0.97310701 0.97293274
 0.97276247 0.9725962  0.9724339  0.97227558 0.97212123 0.97197085
 0.97182442 0.97168193 0.97154339 0.97140878 0.9712781  0.97115133
 0.97102847 0.97090952 0.97079446 0.97068329 0.970576   0.97047259
 0.97037303 0.97027734 0.97018549 0.97009749 0.97001332 0.96993297
 0.96985645 0.96978373 0.96971481 0.96964969 0.96958836 0.9695308
 0.96947702 0.96942699 0.96938072 0.9693382  0.96929941 0.96926435
 0.96923301 0.96920539 0.96918146 0.96916124 0.9691447  0.96913184
 0.96912266 0.96911713 0.96911526 0.96911704 0.96912245 0.96913149
 0.96914415 0.96916042 0.9691803  0.96920376 0.96923082 0.96926145
 0.96929565 0.9693334  0.96937471 0.96941956 0.96946795 0.96951986
 0.96957528 0.96963421 0.96969664 0.96976255 0.96983195 0.96990482
 0.96998115 0.97006093 0.97014416 0.97023082 0.97032091 0.97041441
 0.97051133 0.97061164 0.97071534 0.97082243 0.97093288 0.9710467
 0.97116387 0.97128439 0.97140824 0.97153541 0.97166591 0.97179971
 0.97193681 0.97207719 0.97222086 0.9723678  0.972518   0.97267145
 0.97282814 0.97298807 0.97315122 0.97331759 0.97348716 0.97365992
 0.97383587 0.974015   0.9741973  0.97438276 0.97457136 0.9747631
 0.97495798 0.97515597 0.97535708 0.97556128 0.97576858 0.97597897
 0.97619242 0.97640894 0.97662851 0.97685113 0.97707678 0.97730546
 0.97753715 0.97777185 0.97800955 0.97825024 0.9784939  0.97874053
 0.97899013 0.97924267 0.97949815 0.97975656 0.98001789 0.98028213
 0.98054927 0.98081931 0.98109223 0.98136802 0.98164667 0.98192818
 0.98221254 0.98249972 0.98278974 0.98308256 0.9833782  0.98367663
 0.98397784 0.98428184 0.9845886  0.98489812 0.98521039 0.98552539
 0.98584313 0.98616358 0.98648675 0.98681262 0.98714117 0.98747241
 0.98780632 0.9881429  0.98848212 0.98882399 0.9891685  0.98951562
 0.98986537 0.99021771 0.99057266 0.99093019 0.99129029 0.99165297
 0.9920182  0.99238598 0.9927563  0.99312914 0.99350451 0.99388239
 0.99426277 0.99464564 0.99503099 0.99541881 0.9958091  0.99620184
 0.99659703 0.99699465 0.9973947  0.99779716 0.99820203 0.9986093
 0.99901896 0.99943099 0.9998454  1.00026216 1.00068127 1.00110273
 1.00152652 1.00195263 1.00238106 1.00281179 1.00324482 1.00368013
 1.00411772 1.00455757 1.00499969 1.00544405 1.00589066 1.00633949
 1.00679055 1.00724382 1.00769929 1.00815696 1.00861681 1.00907884
 1.00954304 1.01000939 1.0104779  1.01094854 1.01142132 1.01189621
 1.01237322 1.01285234 1.01333355 1.01381685 1.01430222 1.01478966
 1.01527916 1.01577072 1.01626431 1.01675994 1.01725759 1.01775726
 1.01825893 1.0187626  1.01926827 1.01977591 1.02028552 1.0207971
 1.02131063 1.0218261  1.02234352 1.02286286 1.02338412 1.02390729
 1.02443237 1.02495934 1.02548819 1.02601892 1.02655152 1.02708598
 1.02762229 1.02816045 1.02870043 1.02924225 1.02978588 1.03033132
 1.03087857 1.0314276  1.03197842 1.03253102 1.03308538 1.03364151
 1.03419938 1.034759   1.03532035 1.03588343 1.03644823 1.03701474
 1.03758295 1.03815285 1.03872444 1.03929771 1.03987265 1.04044925
 1.04102751 1.04160741 1.04218895 1.04277212 1.04335691 1.04394331
 1.04453133 1.04512094 1.04571214 1.04630492 1.04689928 1.04749521
 1.0480927  1.04869174 1.04929232 1.04989444 1.05049809 1.05110326
 1.05170995 1.05231814 1.05292783 1.05353901 1.05415167 1.05476581
 1.05538142 1.05599849 1.05661702 1.05723699 1.0578584  1.05848124
 1.0591055  1.05973118 1.06035828 1.06098677 1.06161666 1.06224794
 1.0628806  1.06351463 1.06415003 1.06478679 1.0654249  1.06606435
 1.06670515 1.06734727 1.06799072 1.06863549 1.06928156 1.06992894
 1.07057762 1.07122758 1.07187883 1.07253135 1.07318515 1.0738402
 1.07449651 1.07515407 1.07581287 1.07647291 1.07713417 1.07779666
 1.07846036 1.07912527 1.07979138 1.08045869 1.08112718 1.08179686
 1.08246772 1.08313974 1.08381293 1.08448727 1.08516277 1.08583941
 1.08651719 1.08719609 1.08787613 1.08855728 1.08923954 1.08992291
 1.09060738 1.09129295 1.0919796  1.09266734 1.09335615 1.09404603
 1.09473697 1.09542897 1.09612203 1.09681613 1.09751127 1.09820744
 1.09890464 1.09960286 1.1003021  1.10100235 1.1017036  1.10240585
 1.1031091  1.10381333 1.10451855 1.10522474 1.1059319  1.10664002
 1.10734911 1.10805915 1.10877013 1.10948206 1.11019493 1.11090873
 1.11162345 1.1123391  1.11305566 1.11377313 1.1144915  1.11521078
 1.11593095 1.116652   1.11737394 1.11809676 1.11882045 1.11954501
 1.12027044 1.12099672 1.12172385 1.12245183 1.12318065 1.12391031
 1.1246408  1.12537212 1.12610427 1.12683723 1.127571   1.12830558
 1.12904096 1.12977714 1.13051412 1.13125188 1.13199043 1.13272975
 1.13346985 1.13421072 1.13495236 1.13569475 1.13643791 1.13718181
 1.13792646 1.13867185 1.13941798 1.14016484 1.14091243 1.14166074
 1.14240978 1.14315953 1.14390999 1.14466116 1.14541303 1.1461656
 1.14691886 1.14767281 1.14842745 1.14918277 1.14993876 1.15069543
 1.15145277 1.15221077 1.15296943 1.15372875 1.15448872 1.15524934
 1.15601061 1.15677251 1.15753506 1.15829823 1.15906204 1.15982646
 1.16059151 1.16135718 1.16212346 1.16289036 1.16365785 1.16442595
 1.16519465 1.16596395 1.16673383 1.1675043  1.16827536 1.169047
 1.16981922 1.17059201 1.17136536 1.17213929 1.17291378 1.17368883
 1.17446443 1.17524059 1.1760173  1.17679455 1.17757235 1.17835069
 1.17912956 1.17990897 1.18068891 1.18146937 1.18225036 1.18303187
 1.18381389 1.18459643 1.18537948 1.18616304 1.1869471  1.18773167
 1.18851674 1.1893023  1.19008835 1.1908749  1.19166193 1.19244945
 1.19323745 1.19402592 1.19481488 1.1956043  1.1963942  1.19718457
 1.1979754  1.19876669 1.19955845 1.20035066 1.20114332 1.20193644
 1.20273    1.20352402 1.20431847 1.20511337 1.20590871 1.20670449
 1.2075007  1.20829734 1.20909441 1.20989191 1.21068983 1.21148818
 1.21228694 1.21308613 1.21388572 1.21468574 1.21548616 1.216287
 1.21708824 1.21788988 1.21869193 1.21949437]
t = [1.09449390e+09 1.09449399e+09 1.09449407e+09 1.09449416e+09
 1.09449425e+09 1.09449433e+09 1.09449442e+09 1.09449451e+09
 1.09449459e+09 1.09449468e+09 1.09449477e+09 1.09449485e+09
 1.09449494e+09 1.09449502e+09 1.09449511e+09 1.09449520e+09
 1.09449528e+09 1.09449537e+09 1.09449546e+09 1.09449554e+09
 1.09449563e+09 1.09449572e+09 1.09449580e+09 1.09449589e+09
 1.09449598e+09 1.09449606e+09 1.09449615e+09 1.09449624e+09
 1.09449632e+09 1.09449641e+09 1.09449649e+09 1.09449658e+09
 1.09449667e+09 1.09449675e+09 1.09449684e+09 1.09449693e+09
 1.09449701e+09 1.09449710e+09 1.09449719e+09 1.09449727e+09
 1.09449736e+09 1.09449745e+09 1.09449753e+09 1.09449762e+09
 1.09449771e+09 1.09449779e+09 1.09449788e+09 1.09449797e+09
 1.09449805e+09 1.09449814e+09 1.09449822e+09 1.09449831e+09
 1.09449840e+09 1.09449848e+09 1.09449857e+09 1.09449866e+09
 1.09449874e+09 1.09449883e+09 1.09449892e+09 1.09449900e+09
 1.09449909e+09 1.09449918e+09 1.09449926e+09 1.09449935e+09
 1.09449944e+09 1.09449952e+09 1.09449961e+09 1.09449969e+09
 1.09449978e+09 1.09449987e+09 1.09449995e+09 1.09450004e+09
 1.09450013e+09 1.09450021e+09 1.09450030e+09 1.09450039e+09
 1.09450047e+09 1.09450056e+09 1.09450065e+09 1.09450073e+09
 1.09450082e+09 1.09450091e+09 1.09450099e+09 1.09450108e+09
 1.09450117e+09 1.09450125e+09 1.09450134e+09 1.09450142e+09
 1.09450151e+09 1.09450160e+09 1.09450168e+09 1.09450177e+09
 1.09450186e+09 1.09450194e+09 1.09450203e+09 1.09450212e+09
 1.09450220e+09 1.09450229e+09 1.09450238e+09 1.09450246e+09
 1.09450255e+09 1.09450264e+09 1.09450272e+09 1.09450281e+09
 1.09450289e+09 1.09450298e+09 1.09450307e+09 1.09450315e+09
 1.09450324e+09 1.09450333e+09 1.09450341e+09 1.09450350e+09
 1.09450359e+09 1.09450367e+09 1.09450376e+09 1.09450385e+09
 1.09450393e+09 1.09450402e+09 1.09450411e+09 1.09450419e+09
 1.09450428e+09 1.09450437e+09 1.09450445e+09 1.09450454e+09
 1.09450462e+09 1.09450471e+09 1.09450480e+09 1.09450488e+09
 1.09450497e+09 1.09450506e+09 1.09450514e+09 1.09450523e+09
 1.09450532e+09 1.09450540e+09 1.09450549e+09 1.09450558e+09
 1.09450566e+09 1.09450575e+09 1.09450584e+09 1.09450592e+09
 1.09450601e+09 1.09450609e+09 1.09450618e+09 1.09450627e+09
 1.09450635e+09 1.09450644e+09 1.09450653e+09 1.09450661e+09
 1.09450670e+09 1.09450679e+09 1.09450687e+09 1.09450696e+09
 1.09450705e+09 1.09450713e+09 1.09450722e+09 1.09450731e+09
 1.09450739e+09 1.09450748e+09 1.09450757e+09 1.09450765e+09
 1.09450774e+09 1.09450782e+09 1.09450791e+09 1.09450800e+09
 1.09450808e+09 1.09450817e+09 1.09450826e+09 1.09450834e+09
 1.09450843e+09 1.09450852e+09 1.09450860e+09 1.09450869e+09
 1.09450878e+09 1.09450886e+09 1.09450895e+09 1.09450904e+09
 1.09450912e+09 1.09450921e+09 1.09450929e+09 1.09450938e+09
 1.09450947e+09 1.09450955e+09 1.09450964e+09 1.09450973e+09
 1.09450981e+09 1.09450990e+09 1.09450999e+09 1.09451007e+09
 1.09451016e+09 1.09451025e+09 1.09451033e+09 1.09451042e+09
 1.09451051e+09 1.09451059e+09 1.09451068e+09 1.09451077e+09
 1.09451085e+09 1.09451094e+09 1.09451102e+09 1.09451111e+09
 1.09451120e+09 1.09451128e+09 1.09451137e+09 1.09451146e+09
 1.09451154e+09 1.09451163e+09 1.09451172e+09 1.09451180e+09
 1.09451189e+09 1.09451198e+09 1.09451206e+09 1.09451215e+09
 1.09451224e+09 1.09451232e+09 1.09451241e+09 1.09451249e+09
 1.09451258e+09 1.09451267e+09 1.09451275e+09 1.09451284e+09
 1.09451293e+09 1.09451301e+09 1.09451310e+09 1.09451319e+09
 1.09451327e+09 1.09451336e+09 1.09451345e+09 1.09451353e+09
 1.09451362e+09 1.09451371e+09 1.09451379e+09 1.09451388e+09
 1.09451397e+09 1.09451405e+09 1.09451414e+09 1.09451422e+09
 1.09451431e+09 1.09451440e+09 1.09451448e+09 1.09451457e+09
 1.09451466e+09 1.09451474e+09 1.09451483e+09 1.09451492e+09
 1.09451500e+09 1.09451509e+09 1.09451518e+09 1.09451526e+09
 1.09451535e+09 1.09451544e+09 1.09451552e+09 1.09451561e+09
 1.09451569e+09 1.09451578e+09 1.09451587e+09 1.09451595e+09
 1.09451604e+09 1.09451613e+09 1.09451621e+09 1.09451630e+09
 1.09451639e+09 1.09451647e+09 1.09451656e+09 1.09451665e+09
 1.09451673e+09 1.09451682e+09 1.09451691e+09 1.09451699e+09
 1.09451708e+09 1.09451717e+09 1.09451725e+09 1.09451734e+09
 1.09451742e+09 1.09451751e+09 1.09451760e+09 1.09451768e+09
 1.09451777e+09 1.09451786e+09 1.09451794e+09 1.09451803e+09
 1.09451812e+09 1.09451820e+09 1.09451829e+09 1.09451838e+09
 1.09451846e+09 1.09451855e+09 1.09451864e+09 1.09451872e+09
 1.09451881e+09 1.09451889e+09 1.09451898e+09 1.09451907e+09
 1.09451915e+09 1.09451924e+09 1.09451933e+09 1.09451941e+09
 1.09451950e+09 1.09451959e+09 1.09451967e+09 1.09451976e+09
 1.09451985e+09 1.09451993e+09 1.09452002e+09 1.09452011e+09
 1.09452019e+09 1.09452028e+09 1.09452037e+09 1.09452045e+09
 1.09452054e+09 1.09452062e+09 1.09452071e+09 1.09452080e+09
 1.09452088e+09 1.09452097e+09 1.09452106e+09 1.09452114e+09
 1.09452123e+09 1.09452132e+09 1.09452140e+09 1.09452149e+09
 1.09452158e+09 1.09452166e+09 1.09452175e+09 1.09452184e+09
 1.09452192e+09 1.09452201e+09 1.09452209e+09 1.09452218e+09
 1.09452227e+09 1.09452235e+09 1.09452244e+09 1.09452253e+09
 1.09452261e+09 1.09452270e+09 1.09452279e+09 1.09452287e+09
 1.09452296e+09 1.09452305e+09 1.09452313e+09 1.09452322e+09
 1.09452331e+09 1.09452339e+09 1.09452348e+09 1.09452357e+09
 1.09452365e+09 1.09452374e+09 1.09452382e+09 1.09452391e+09
 1.09452400e+09 1.09452408e+09 1.09452417e+09 1.09452426e+09
 1.09452434e+09 1.09452443e+09 1.09452452e+09 1.09452460e+09
 1.09452469e+09 1.09452478e+09 1.09452486e+09 1.09452495e+09
 1.09452504e+09 1.09452512e+09 1.09452521e+09 1.09452529e+09
 1.09452538e+09 1.09452547e+09 1.09452555e+09 1.09452564e+09
 1.09452573e+09 1.09452581e+09 1.09452590e+09 1.09452599e+09
 1.09452607e+09 1.09452616e+09 1.09452625e+09 1.09452633e+09
 1.09452642e+09 1.09452651e+09 1.09452659e+09 1.09452668e+09
 1.09452677e+09 1.09452685e+09 1.09452694e+09 1.09452702e+09
 1.09452711e+09 1.09452720e+09 1.09452728e+09 1.09452737e+09
 1.09452746e+09 1.09452754e+09 1.09452763e+09 1.09452772e+09
 1.09452780e+09 1.09452789e+09 1.09452798e+09 1.09452806e+09
 1.09452815e+09 1.09452824e+09 1.09452832e+09 1.09452841e+09
 1.09452849e+09 1.09452858e+09 1.09452867e+09 1.09452875e+09
 1.09452884e+09 1.09452893e+09 1.09452901e+09 1.09452910e+09
 1.09452919e+09 1.09452927e+09 1.09452936e+09 1.09452945e+09
 1.09452953e+09 1.09452962e+09 1.09452971e+09 1.09452979e+09
 1.09452988e+09 1.09452997e+09 1.09453005e+09 1.09453014e+09
 1.09453022e+09 1.09453031e+09 1.09453040e+09 1.09453048e+09
 1.09453057e+09 1.09453066e+09 1.09453074e+09 1.09453083e+09
 1.09453092e+09 1.09453100e+09 1.09453109e+09 1.09453118e+09
 1.09453126e+09 1.09453135e+09 1.09453144e+09 1.09453152e+09
 1.09453161e+09 1.09453169e+09 1.09453178e+09 1.09453187e+09
 1.09453195e+09 1.09453204e+09 1.09453213e+09 1.09453221e+09
 1.09453230e+09 1.09453239e+09 1.09453247e+09 1.09453256e+09
 1.09453265e+09 1.09453273e+09 1.09453282e+09 1.09453291e+09
 1.09453299e+09 1.09453308e+09 1.09453317e+09 1.09453325e+09
 1.09453334e+09 1.09453342e+09 1.09453351e+09 1.09453360e+09
 1.09453368e+09 1.09453377e+09 1.09453386e+09 1.09453394e+09
 1.09453403e+09 1.09453412e+09 1.09453420e+09 1.09453429e+09
 1.09453438e+09 1.09453446e+09 1.09453455e+09 1.09453464e+09
 1.09453472e+09 1.09453481e+09 1.09453489e+09 1.09453498e+09
 1.09453507e+09 1.09453515e+09 1.09453524e+09 1.09453533e+09
 1.09453541e+09 1.09453550e+09 1.09453559e+09 1.09453567e+09
 1.09453576e+09 1.09453585e+09 1.09453593e+09 1.09453602e+09
 1.09453611e+09 1.09453619e+09 1.09453628e+09 1.09453637e+09
 1.09453645e+09 1.09453654e+09 1.09453662e+09 1.09453671e+09
 1.09453680e+09 1.09453688e+09 1.09453697e+09 1.09453706e+09
 1.09453714e+09 1.09453723e+09 1.09453732e+09 1.09453740e+09
 1.09453749e+09 1.09453758e+09 1.09453766e+09 1.09453775e+09
 1.09453784e+09 1.09453792e+09 1.09453801e+09 1.09453809e+09
 1.09453818e+09 1.09453827e+09 1.09453835e+09 1.09453844e+09
 1.09453853e+09 1.09453861e+09 1.09453870e+09 1.09453879e+09
 1.09453887e+09 1.09453896e+09 1.09453905e+09 1.09453913e+09
 1.09453922e+09 1.09453931e+09 1.09453939e+09 1.09453948e+09
 1.09453957e+09 1.09453965e+09 1.09453974e+09 1.09453982e+09
 1.09453991e+09 1.09454000e+09 1.09454008e+09 1.09454017e+09
 1.09454026e+09 1.09454034e+09 1.09454043e+09 1.09454052e+09
 1.09454060e+09 1.09454069e+09 1.09454078e+09 1.09454086e+09
 1.09454095e+09 1.09454104e+09 1.09454112e+09 1.09454121e+09
 1.09454129e+09 1.09454138e+09 1.09454147e+09 1.09454155e+09
 1.09454164e+09 1.09454173e+09 1.09454181e+09 1.09454190e+09
 1.09454199e+09 1.09454207e+09 1.09454216e+09 1.09454225e+09
