name =JUICE_ROI_GAN_6_3_06
flyby = ['2034 JUL 11 19:50:31', '2034 JUL 12 19:50:31']
Observation TW = <SpiceCell dtype = 1, length = 0, size = 3000, card = 10, is_set = 1, adjust = 0, init = 1, base = 94527700103840, data = 94527700103888>
Res(t) = [3.09445619 3.09049196 3.0865328  3.08257873 3.07862976 3.07468592
 3.07074721 3.06681365 3.06288525 3.05896205 3.05504404 3.05113124
 3.04722367 3.04332135 3.03942429 3.0355325  3.03164601 3.02776482
 3.02388895 3.02001842 3.01615324 3.01229343 3.008439   3.00458998
 3.00074636 2.99690817 2.99307543 2.98924814 2.98542633 2.98161001
 2.97779919 2.97399389 2.97019412 2.9663999  2.96261125 2.95882817
 2.95505069 2.95127882 2.94751256 2.94375194 2.93999698 2.93624769
 2.93250407 2.92876615 2.92503394 2.92130746 2.91758671 2.91387173
 2.9101625  2.90645906 2.90276142 2.89906959 2.89538358 2.89170342
 2.88802911 2.88436066 2.8806981  2.87704143 2.87339068 2.86974584
 2.86610695 2.86247401 2.85884703 2.85522603 2.85161102 2.84800203
 2.84439905 2.8408021  2.83721121 2.83362637 2.83004761 2.82647494
 2.82290837 2.81934791 2.81579358 2.81224539 2.80870336 2.80516749
 2.8016378  2.79811431 2.79459702 2.79108595 2.78758112 2.78408253
 2.78059019 2.77710413 2.77362435 2.77015087 2.76668369 2.76322283
 2.75976831 2.75632014 2.75287831 2.74944287 2.7460138  2.74259113
 2.73917486 2.73576502 2.7323616  2.72896463 2.72557411 2.72219005
 2.71881248 2.71544139 2.71207681 2.70871874 2.7053672  2.70202219
 2.69868372 2.69535182 2.69202649 2.68870773 2.68539557 2.68209002
 2.67879107 2.67549876 2.67221308 2.66893405 2.66566167 2.66239596
 2.65913694 2.65588461 2.65263897 2.64940005 2.64616784 2.64294237
 2.63972364 2.63651167 2.63330646 2.63010801 2.62691636 2.62373149
 2.62055343 2.61738218 2.61421775 2.61106015 2.6079094  2.60476549
 2.60162845 2.59849828 2.59537498 2.59225857 2.58914907 2.58604646
 2.58295078 2.57986202 2.57678019 2.57370531 2.57063737 2.5675764
 2.5645224  2.56147537 2.55843533 2.55540228 2.55237624 2.54935721
 2.5463452  2.54334021 2.54034226 2.53735135 2.5343675  2.5313907
 2.52842097 2.52545832 2.52250275 2.51955427 2.51661288 2.51367861
 2.51075144 2.50783139 2.50491847 2.50201269 2.49911404 2.49622254
 2.4933382  2.49046102 2.48759101 2.48472817 2.48187251 2.47902405
 2.47618277 2.4733487  2.47052184 2.46770219 2.46488975 2.46208455
 2.45928657 2.45649584 2.45371235 2.4509361  2.44816712 2.44540539
 2.44265092 2.43990373 2.43716382 2.43443119 2.43170585 2.4289878
 2.42627704 2.42357359 2.42087745 2.41818862 2.4155071  2.41283291
 2.41016605 2.40750652 2.40485432 2.40220946 2.39957194 2.39694178
 2.39431896 2.39170351 2.38909541 2.38649468 2.38390132 2.38131532
 2.37873671 2.37616547 2.37360162 2.37104515 2.36849608 2.36595439
 2.3634201  2.36089322 2.35837373 2.35586165 2.35335698 2.35085972
 2.34836987 2.34588744 2.34341243 2.34094484 2.33848467 2.33603193
 2.33358662 2.33114874 2.32871829 2.32629528 2.32387971 2.32147157
 2.31907087 2.31667762 2.31429181 2.31191345 2.30954254 2.30717907
 2.30482305 2.30247449 2.30013337 2.29779971 2.29547351 2.29315476
 2.29084347 2.28853963 2.28624326 2.28395434 2.28167288 2.27939888
 2.27713234 2.27487326 2.27262165 2.27037749 2.2681408  2.26591156
 2.26368979 2.26147548 2.25926863 2.25706924 2.25487731 2.25269284
 2.25051583 2.24834628 2.24618419 2.24402956 2.24188238 2.23974266
 2.23761039 2.23548558 2.23336823 2.23125832 2.22915586 2.22706086
 2.2249733  2.22289319 2.22082052 2.2187553  2.21669752 2.21464718
 2.21260428 2.21056882 2.20854079 2.20652019 2.20450702 2.20250128
 2.20050297 2.19851208 2.19652862 2.19455257 2.19258394 2.19062272
 2.18866892 2.18672252 2.18478353 2.18285195 2.18092776 2.17901097
 2.17710157 2.17519957 2.17330495 2.17141772 2.16953787 2.1676654
 2.1658003  2.16394257 2.16209221 2.16024921 2.15841357 2.15658529
 2.15476436 2.15295078 2.15114454 2.14934564 2.14755408 2.14576985
 2.14399295 2.14222337 2.14046111 2.13870616 2.13695853 2.1352182
 2.13348517 2.13175943 2.13004099 2.12832983 2.12662596 2.12492936
 2.12324003 2.12155797 2.11988316 2.11821562 2.11655532 2.11490227
 2.11325646 2.11161789 2.10998654 2.10836242 2.10674551 2.10513582
 2.10353333 2.10193805 2.10034995 2.09876905 2.09719533 2.09562878
 2.09406941 2.0925172  2.09097215 2.08943424 2.08790349 2.08637987
 2.08486339 2.08335403 2.0818518  2.08035667 2.07886865 2.07738773
 2.07591391 2.07444717 2.07298751 2.07153492 2.07008939 2.06865093
 2.06721951 2.06579514 2.06437781 2.0629675  2.06156422 2.06016795
 2.05877869 2.05739643 2.05602116 2.05465288 2.05329157 2.05193724
 2.05058986 2.04924944 2.04791596 2.04658943 2.04526982 2.04395714
 2.04265137 2.04135251 2.04006054 2.03877547 2.03749728 2.03622596
 2.03496151 2.03370392 2.03245317 2.03120927 2.02997219 2.02874194
 2.02751851 2.02630188 2.02509205 2.02388901 2.02269275 2.02150326
 2.02032054 2.01914456 2.01797534 2.01681285 2.01565708 2.01450804
 2.0133657  2.01223007 2.01110112 2.00997886 2.00886327 2.00775434
 2.00665207 2.00555644 2.00446745 2.00338508 2.00230933 2.00124019
 2.00017764 1.99912168 1.99807231 1.99702949 1.99599324 1.99496354
 1.99394038 1.99292375 1.99191364 1.99091004 1.98991293 1.98892232
 1.9879382  1.98696054 1.98598934 1.98502459 1.98406629 1.98311441
 1.98216895 1.98122991 1.98029727 1.97937101 1.97845114 1.97753763
 1.97663048 1.97572969 1.97483523 1.9739471  1.97306528 1.97218978
 1.97132057 1.97045765 1.969601   1.96875062 1.96790649 1.9670686
 1.96623696 1.96541153 1.96459231 1.9637793  1.96297248 1.96217183
 1.96137736 1.96058904 1.95980687 1.95903084 1.95826093 1.95749714
 1.95673946 1.95598786 1.95524235 1.95450291 1.95376953 1.95304219
 1.9523209  1.95160563 1.95089638 1.95019313 1.94949588 1.94880461
 1.94811931 1.94743997 1.94676658 1.94609913 1.9454376  1.94478199
 1.94413228 1.94348846 1.94285053 1.94221847 1.94159226 1.9409719
 1.94035738 1.93974869 1.9391458  1.93854872 1.93795743 1.93737191
 1.93679217 1.93621818 1.93564993 1.93508742 1.93453063 1.93397955
 1.93343416 1.93289447 1.93236045 1.93183209 1.93130938 1.93079232
 1.93028088 1.92977507 1.92927485 1.92878023 1.9282912  1.92780773
 1.92732983 1.92685747 1.92639064 1.92592935 1.92547356 1.92502327
 1.92457848 1.92413916 1.9237053  1.9232769  1.92285394 1.92243641
 1.9220243  1.9216176  1.92121629 1.92082036 1.92042981 1.92004461
 1.91966477 1.91929026 1.91892107 1.9185572  1.91819862 1.91784534
 1.91749733 1.91715459 1.9168171  1.91648485 1.91615783 1.91583603
 1.91551944 1.91520804 1.91490182 1.91460077 1.91430488 1.91401414
 1.91372853 1.91344805 1.91317268 1.91290241 1.91263722 1.91237711
 1.91212207 1.91187207 1.91162712 1.9113872  1.91115229 1.91092239
 1.91069748 1.91047755 1.91026259 1.91005259 1.90984753 1.90964741
 1.90945221 1.90926192 1.90907653 1.90889603 1.9087204  1.90854963
 1.90838372 1.90822264 1.90806639 1.90791496 1.90776833 1.9076265
 1.90748944 1.90735716 1.90722963 1.90710684 1.90698879 1.90687547
 1.90676685 1.90666293 1.9065637  1.90646914 1.90637925 1.906294
 1.9062134  1.90613743 1.90606607 1.90599932 1.90593716 1.90587958
 1.90582657 1.90577813 1.90573422 1.90569486 1.90566001 1.90562968
 1.90560385 1.90558251 1.90556565 1.90555325 1.9055453  1.9055418
 1.90554273 1.90554808 1.90555784 1.90557199 1.90559053 1.90561344
 1.90564072 1.90567235 1.90570831 1.90574861 1.90579322 1.90584213
 1.90589534 1.90595283 1.9060146  1.90608062 1.90615089 1.9062254
 1.90630414 1.90638709 1.90647424 1.90656558 1.90666111 1.90676081
 1.90686466 1.90697266 1.9070848  1.90720106 1.90732143 1.90744591
 1.90757448 1.90770713 1.90784385 1.90798463 1.90812945 1.90827831
 1.90843119 1.90858809 1.90874899 1.90891388 1.90908276 1.9092556
 1.90943241 1.90961316 1.90979784 1.90998646 1.91017899 1.91037542
 1.91057575 1.91077996 1.91098804 1.91119999 1.91141578 1.91163542
 1.91185888 1.91208616 1.91231725 1.91255214 1.91279081 1.91303326
 1.91327947 1.91352944 1.91378315 1.91404059 1.91430176 1.91456664
 1.91483522 1.91510749 1.91538344 1.91566306 1.91594634 1.91623328
 1.91652385 1.91681804 1.91711586 1.91741728 1.9177223  1.91803091
 1.9183431  1.91865885 1.91897816 1.91930101 1.9196274  1.91995731
 1.92029075 1.92062768 1.92096811 1.92131203 1.92165942 1.92201028
 1.92236459 1.92272234 1.92308353 1.92344815 1.92381618 1.92418762
 1.92456245 1.92494066 1.92532225 1.92570721 1.92609552 1.92648718
 1.92688217 1.92728049 1.92768213 1.92808707 1.92849531 1.92890684
 1.92932165 1.92973972 1.93016105 1.93058563 1.93101345 1.9314445
 1.93187877 1.93231625 1.93275694 1.93320081 1.93364787 1.9340981
 1.93455149 1.93500803 1.93546773 1.93593055 1.93639651 1.93686558
 1.93733776 1.93781303 1.9382914  1.93877284 1.93925736 1.93974494
 1.94023557 1.94072924 1.94122595 1.94172569 1.94222844 1.9427342
 1.94324295 1.9437547  1.94426943 1.94478712 1.94530779 1.9458314
 1.94635796 1.94688746 1.94741988 1.94795522 1.94849347 1.94903463
 1.94957867 1.9501256  1.95067541 1.95122808 1.95178361 1.95234199
 1.95290321 1.95346726 1.95403414 1.95460383 1.95517633 1.95575162
 1.95632971 1.95691058 1.95749422 1.95808063 1.95866979 1.9592617
 1.95985636 1.96045374 1.96105385 1.96165667 1.9622622  1.96287043
 1.96348135 1.96409496 1.96471124 1.96533018 1.96595179 1.96657604
 1.96720294 1.96783248 1.96846464 1.96909942 1.96973681 1.97037681
 1.9710194  1.97166458 1.97231234 1.97296267 1.97361557 1.97427102
 1.97492903 1.97558957 1.97625265 1.97691826 1.97758638 1.97825702
 1.97893016 1.9796058  1.98028392 1.98096453 1.98164761 1.98233316
 1.98302117 1.98371163 1.98440453 1.98509988 1.98579765 1.98649784
 1.98720046 1.98790548 1.9886129  1.98932271 1.99003492 1.9907495
 1.99146645 1.99218578 1.99290746 1.99363149 1.99435787 1.99508658
 1.99581763 1.996551   1.99728669 1.99802469 1.99876499 1.99950759
 2.00025248 2.00099966 2.00174911 2.00250083 2.00325481 2.00401106
 2.00476955 2.00553028 2.00629325 2.00705846 2.00782588 2.00859553
 2.00936738 2.01014144 2.0109177  2.01169615 2.01247679 2.0132596
 2.01404459 2.01483174 2.01562106 2.01641253 2.01720614 2.0180019
 2.01879979 2.01959982 2.02040196 2.02120623 2.0220126  2.02282108
 2.02363166 2.02444433 2.02525909 2.02607593 2.02689485 2.02771583
 2.02853888 2.02936399 2.03019115 2.03102035 2.0318516  2.03268488
 2.03352019 2.03435752 2.03519687 2.03603823 2.0368816  2.03772697
 2.03857434 2.03942369 2.04027503 2.04112835 2.04198364 2.0428409
 2.04370013 2.04456131 2.04542444 2.04628952 2.04715654 2.04802549
 2.04889638 2.04976919 2.05064392 2.05152057 2.05239913 2.05327959
 2.05416196 2.05504622 2.05593236 2.0568204  2.05771031 2.0586021
 2.05949576 2.06039128 2.06128866 2.0621879  2.06308899 2.06399192
 2.0648967  2.06580331 2.06671175 2.06762202 2.06853411 2.06944802
 2.07036374 2.07128127 2.0722006  2.07312174 2.07404466 2.07496938
 2.07589588 2.07682416 2.07775422 2.07868605 2.07961965 2.08055501
 2.08149213 2.08243101 2.08337164 2.08431401 2.08525812 2.08620398
 2.08715156 2.08810088 2.08905192 2.09000468 2.09095916 2.09191535
 2.09287325 2.09383286 2.09479417 2.09575717 2.09672187 2.09768826
 2.09865633 2.09962608 2.10059752 2.10157062 2.1025454  2.10352184
 2.10449994 2.10547971 2.10646113 2.1074442  2.10842891 2.10941528
 2.11040328 2.11139292 2.1123842  2.1133771  2.11437163 2.11536779
 2.11636556 2.11736495 2.11836596 2.11936857 2.12037279 2.12137861
 2.12238604 2.12339506 2.12440567 2.12541787 2.12643166 2.12744703
 2.12846399 2.12948252 2.13050263 2.1315243  2.13254755 2.13357236
 2.13459873 2.13562667 2.13665616 2.1376872 ]
t = [1.08953230e+09 1.08953239e+09 1.08953247e+09 1.08953256e+09
 1.08953265e+09 1.08953273e+09 1.08953282e+09 1.08953291e+09
 1.08953299e+09 1.08953308e+09 1.08953317e+09 1.08953325e+09
 1.08953334e+09 1.08953342e+09 1.08953351e+09 1.08953360e+09
 1.08953368e+09 1.08953377e+09 1.08953386e+09 1.08953394e+09
 1.08953403e+09 1.08953412e+09 1.08953420e+09 1.08953429e+09
 1.08953438e+09 1.08953446e+09 1.08953455e+09 1.08953464e+09
 1.08953472e+09 1.08953481e+09 1.08953489e+09 1.08953498e+09
 1.08953507e+09 1.08953515e+09 1.08953524e+09 1.08953533e+09
 1.08953541e+09 1.08953550e+09 1.08953559e+09 1.08953567e+09
 1.08953576e+09 1.08953585e+09 1.08953593e+09 1.08953602e+09
 1.08953611e+09 1.08953619e+09 1.08953628e+09 1.08953637e+09
 1.08953645e+09 1.08953654e+09 1.08953662e+09 1.08953671e+09
 1.08953680e+09 1.08953688e+09 1.08953697e+09 1.08953706e+09
 1.08953714e+09 1.08953723e+09 1.08953732e+09 1.08953740e+09
 1.08953749e+09 1.08953758e+09 1.08953766e+09 1.08953775e+09
 1.08953784e+09 1.08953792e+09 1.08953801e+09 1.08953809e+09
 1.08953818e+09 1.08953827e+09 1.08953835e+09 1.08953844e+09
 1.08953853e+09 1.08953861e+09 1.08953870e+09 1.08953879e+09
 1.08953887e+09 1.08953896e+09 1.08953905e+09 1.08953913e+09
 1.08953922e+09 1.08953931e+09 1.08953939e+09 1.08953948e+09
 1.08953957e+09 1.08953965e+09 1.08953974e+09 1.08953982e+09
 1.08953991e+09 1.08954000e+09 1.08954008e+09 1.08954017e+09
 1.08954026e+09 1.08954034e+09 1.08954043e+09 1.08954052e+09
 1.08954060e+09 1.08954069e+09 1.08954078e+09 1.08954086e+09
 1.08954095e+09 1.08954104e+09 1.08954112e+09 1.08954121e+09
 1.08954129e+09 1.08954138e+09 1.08954147e+09 1.08954155e+09
 1.08954164e+09 1.08954173e+09 1.08954181e+09 1.08954190e+09
 1.08954199e+09 1.08954207e+09 1.08954216e+09 1.08954225e+09
 1.08954233e+09 1.08954242e+09 1.08954251e+09 1.08954259e+09
 1.08954268e+09 1.08954277e+09 1.08954285e+09 1.08954294e+09
 1.08954302e+09 1.08954311e+09 1.08954320e+09 1.08954328e+09
 1.08954337e+09 1.08954346e+09 1.08954354e+09 1.08954363e+09
 1.08954372e+09 1.08954380e+09 1.08954389e+09 1.08954398e+09
 1.08954406e+09 1.08954415e+09 1.08954424e+09 1.08954432e+09
 1.08954441e+09 1.08954449e+09 1.08954458e+09 1.08954467e+09
 1.08954475e+09 1.08954484e+09 1.08954493e+09 1.08954501e+09
 1.08954510e+09 1.08954519e+09 1.08954527e+09 1.08954536e+09
 1.08954545e+09 1.08954553e+09 1.08954562e+09 1.08954571e+09
 1.08954579e+09 1.08954588e+09 1.08954597e+09 1.08954605e+09
 1.08954614e+09 1.08954622e+09 1.08954631e+09 1.08954640e+09
 1.08954648e+09 1.08954657e+09 1.08954666e+09 1.08954674e+09
 1.08954683e+09 1.08954692e+09 1.08954700e+09 1.08954709e+09
 1.08954718e+09 1.08954726e+09 1.08954735e+09 1.08954744e+09
 1.08954752e+09 1.08954761e+09 1.08954769e+09 1.08954778e+09
 1.08954787e+09 1.08954795e+09 1.08954804e+09 1.08954813e+09
 1.08954821e+09 1.08954830e+09 1.08954839e+09 1.08954847e+09
 1.08954856e+09 1.08954865e+09 1.08954873e+09 1.08954882e+09
 1.08954891e+09 1.08954899e+09 1.08954908e+09 1.08954917e+09
 1.08954925e+09 1.08954934e+09 1.08954942e+09 1.08954951e+09
 1.08954960e+09 1.08954968e+09 1.08954977e+09 1.08954986e+09
 1.08954994e+09 1.08955003e+09 1.08955012e+09 1.08955020e+09
 1.08955029e+09 1.08955038e+09 1.08955046e+09 1.08955055e+09
 1.08955064e+09 1.08955072e+09 1.08955081e+09 1.08955089e+09
 1.08955098e+09 1.08955107e+09 1.08955115e+09 1.08955124e+09
 1.08955133e+09 1.08955141e+09 1.08955150e+09 1.08955159e+09
 1.08955167e+09 1.08955176e+09 1.08955185e+09 1.08955193e+09
 1.08955202e+09 1.08955211e+09 1.08955219e+09 1.08955228e+09
 1.08955237e+09 1.08955245e+09 1.08955254e+09 1.08955262e+09
 1.08955271e+09 1.08955280e+09 1.08955288e+09 1.08955297e+09
 1.08955306e+09 1.08955314e+09 1.08955323e+09 1.08955332e+09
 1.08955340e+09 1.08955349e+09 1.08955358e+09 1.08955366e+09
 1.08955375e+09 1.08955384e+09 1.08955392e+09 1.08955401e+09
 1.08955409e+09 1.08955418e+09 1.08955427e+09 1.08955435e+09
 1.08955444e+09 1.08955453e+09 1.08955461e+09 1.08955470e+09
 1.08955479e+09 1.08955487e+09 1.08955496e+09 1.08955505e+09
 1.08955513e+09 1.08955522e+09 1.08955531e+09 1.08955539e+09
 1.08955548e+09 1.08955557e+09 1.08955565e+09 1.08955574e+09
 1.08955582e+09 1.08955591e+09 1.08955600e+09 1.08955608e+09
 1.08955617e+09 1.08955626e+09 1.08955634e+09 1.08955643e+09
 1.08955652e+09 1.08955660e+09 1.08955669e+09 1.08955678e+09
 1.08955686e+09 1.08955695e+09 1.08955704e+09 1.08955712e+09
 1.08955721e+09 1.08955729e+09 1.08955738e+09 1.08955747e+09
 1.08955755e+09 1.08955764e+09 1.08955773e+09 1.08955781e+09
 1.08955790e+09 1.08955799e+09 1.08955807e+09 1.08955816e+09
 1.08955825e+09 1.08955833e+09 1.08955842e+09 1.08955851e+09
 1.08955859e+09 1.08955868e+09 1.08955877e+09 1.08955885e+09
 1.08955894e+09 1.08955902e+09 1.08955911e+09 1.08955920e+09
 1.08955928e+09 1.08955937e+09 1.08955946e+09 1.08955954e+09
 1.08955963e+09 1.08955972e+09 1.08955980e+09 1.08955989e+09
 1.08955998e+09 1.08956006e+09 1.08956015e+09 1.08956024e+09
 1.08956032e+09 1.08956041e+09 1.08956049e+09 1.08956058e+09
 1.08956067e+09 1.08956075e+09 1.08956084e+09 1.08956093e+09
 1.08956101e+09 1.08956110e+09 1.08956119e+09 1.08956127e+09
 1.08956136e+09 1.08956145e+09 1.08956153e+09 1.08956162e+09
 1.08956171e+09 1.08956179e+09 1.08956188e+09 1.08956197e+09
 1.08956205e+09 1.08956214e+09 1.08956222e+09 1.08956231e+09
 1.08956240e+09 1.08956248e+09 1.08956257e+09 1.08956266e+09
 1.08956274e+09 1.08956283e+09 1.08956292e+09 1.08956300e+09
 1.08956309e+09 1.08956318e+09 1.08956326e+09 1.08956335e+09
 1.08956344e+09 1.08956352e+09 1.08956361e+09 1.08956369e+09
 1.08956378e+09 1.08956387e+09 1.08956395e+09 1.08956404e+09
 1.08956413e+09 1.08956421e+09 1.08956430e+09 1.08956439e+09
 1.08956447e+09 1.08956456e+09 1.08956465e+09 1.08956473e+09
 1.08956482e+09 1.08956491e+09 1.08956499e+09 1.08956508e+09
 1.08956517e+09 1.08956525e+09 1.08956534e+09 1.08956542e+09
 1.08956551e+09 1.08956560e+09 1.08956568e+09 1.08956577e+09
 1.08956586e+09 1.08956594e+09 1.08956603e+09 1.08956612e+09
 1.08956620e+09 1.08956629e+09 1.08956638e+09 1.08956646e+09
 1.08956655e+09 1.08956664e+09 1.08956672e+09 1.08956681e+09
 1.08956689e+09 1.08956698e+09 1.08956707e+09 1.08956715e+09
 1.08956724e+09 1.08956733e+09 1.08956741e+09 1.08956750e+09
 1.08956759e+09 1.08956767e+09 1.08956776e+09 1.08956785e+09
 1.08956793e+09 1.08956802e+09 1.08956811e+09 1.08956819e+09
 1.08956828e+09 1.08956837e+09 1.08956845e+09 1.08956854e+09
 1.08956862e+09 1.08956871e+09 1.08956880e+09 1.08956888e+09
 1.08956897e+09 1.08956906e+09 1.08956914e+09 1.08956923e+09
 1.08956932e+09 1.08956940e+09 1.08956949e+09 1.08956958e+09
 1.08956966e+09 1.08956975e+09 1.08956984e+09 1.08956992e+09
 1.08957001e+09 1.08957009e+09 1.08957018e+09 1.08957027e+09
 1.08957035e+09 1.08957044e+09 1.08957053e+09 1.08957061e+09
 1.08957070e+09 1.08957079e+09 1.08957087e+09 1.08957096e+09
 1.08957105e+09 1.08957113e+09 1.08957122e+09 1.08957131e+09
 1.08957139e+09 1.08957148e+09 1.08957157e+09 1.08957165e+09
 1.08957174e+09 1.08957182e+09 1.08957191e+09 1.08957200e+09
 1.08957208e+09 1.08957217e+09 1.08957226e+09 1.08957234e+09
 1.08957243e+09 1.08957252e+09 1.08957260e+09 1.08957269e+09
 1.08957278e+09 1.08957286e+09 1.08957295e+09 1.08957304e+09
 1.08957312e+09 1.08957321e+09 1.08957329e+09 1.08957338e+09
 1.08957347e+09 1.08957355e+09 1.08957364e+09 1.08957373e+09
 1.08957381e+09 1.08957390e+09 1.08957399e+09 1.08957407e+09
 1.08957416e+09 1.08957425e+09 1.08957433e+09 1.08957442e+09
 1.08957451e+09 1.08957459e+09 1.08957468e+09 1.08957477e+09
 1.08957485e+09 1.08957494e+09 1.08957502e+09 1.08957511e+09
 1.08957520e+09 1.08957528e+09 1.08957537e+09 1.08957546e+09
 1.08957554e+09 1.08957563e+09 1.08957572e+09 1.08957580e+09
 1.08957589e+09 1.08957598e+09 1.08957606e+09 1.08957615e+09
 1.08957624e+09 1.08957632e+09 1.08957641e+09 1.08957649e+09
 1.08957658e+09 1.08957667e+09 1.08957675e+09 1.08957684e+09
 1.08957693e+09 1.08957701e+09 1.08957710e+09 1.08957719e+09
 1.08957727e+09 1.08957736e+09 1.08957745e+09 1.08957753e+09
 1.08957762e+09 1.08957771e+09 1.08957779e+09 1.08957788e+09
 1.08957797e+09 1.08957805e+09 1.08957814e+09 1.08957822e+09
 1.08957831e+09 1.08957840e+09 1.08957848e+09 1.08957857e+09
 1.08957866e+09 1.08957874e+09 1.08957883e+09 1.08957892e+09
 1.08957900e+09 1.08957909e+09 1.08957918e+09 1.08957926e+09
 1.08957935e+09 1.08957944e+09 1.08957952e+09 1.08957961e+09
 1.08957969e+09 1.08957978e+09 1.08957987e+09 1.08957995e+09
 1.08958004e+09 1.08958013e+09 1.08958021e+09 1.08958030e+09
 1.08958039e+09 1.08958047e+09 1.08958056e+09 1.08958065e+09
 1.08958073e+09 1.08958082e+09 1.08958091e+09 1.08958099e+09
