name =JUICE_ROI_GAN_4_2_02
flyby = ['2034 NOV 18 09:58:51', '2034 NOV 19 09:58:51']
Observation TW = <SpiceCell dtype = 1, length = 0, size = 3200, card = 12, is_set = 1, adjust = 0, init = 1, base = 94033475273552, data = 94033475273600>
Res(t) = [0.96815933 0.96692483 0.96569527 0.96447061 0.96325086 0.96203598
 0.96082597 0.95962081 0.95842048 0.95722496 0.95603423 0.95484828
 0.9536671  0.95249066 0.95131895 0.95015195 0.94898964 0.94783202
 0.94667906 0.94553074 0.94438705 0.94324798 0.9421135  0.94098361
 0.93985828 0.93873749 0.93762125 0.93650952 0.93540229 0.93429954
 0.93320127 0.93210745 0.93101807 0.92993312 0.92885257 0.92777642
 0.92670464 0.92563723 0.92457416 0.92351542 0.922461   0.92141089
 0.92036506 0.9193235  0.9182862  0.91725314 0.91622431 0.9151997
 0.91417928 0.91316305 0.91215099 0.91114308 0.91013931 0.90913967
 0.90814415 0.90715272 0.90616537 0.9051821  0.90420288 0.90322771
 0.90225656 0.90128943 0.9003263  0.89936716 0.89841199 0.89746079
 0.89651352 0.8955702  0.89463079 0.89369529 0.89276368 0.89183595
 0.89091209 0.88999209 0.88907592 0.88816359 0.88725506 0.88635034
 0.88544941 0.88455226 0.88365887 0.88276923 0.88188332 0.88100115
 0.88012269 0.87924792 0.87837685 0.87750945 0.87664572 0.87578564
 0.8749292  0.87407638 0.87322718 0.87238158 0.87153958 0.87070115
 0.86986629 0.86903499 0.86820723 0.867383   0.86656229 0.86574509
 0.86493139 0.86412117 0.86331443 0.86251115 0.86171132 0.86091493
 0.86012197 0.85933242 0.85854628 0.85776354 0.85698418 0.85620819
 0.85543557 0.85466629 0.85390036 0.85313776 0.85237847 0.85162249
 0.8508698  0.85012041 0.84937429 0.84863143 0.84789183 0.84715547
 0.84642234 0.84569244 0.84496575 0.84424226 0.84352196 0.84280485
 0.8420909  0.84138012 0.84067249 0.839968   0.83926664 0.8385684
 0.83787327 0.83718125 0.83649231 0.83580646 0.83512368 0.83444396
 0.83376729 0.83309366 0.83242307 0.83175551 0.83109095 0.8304294
 0.82977085 0.82911528 0.82846269 0.82781306 0.82716639 0.82652268
 0.82588189 0.82524404 0.82460912 0.8239771  0.82334798 0.82272176
 0.82209843 0.82147797 0.82086037 0.82024564 0.81963375 0.81902471
 0.81841849 0.8178151  0.81721452 0.81661675 0.81602178 0.81542959
 0.81484018 0.81425355 0.81366968 0.81308856 0.81251019 0.81193455
 0.81136165 0.81079146 0.81022399 0.80965923 0.80909716 0.80853778
 0.80798107 0.80742704 0.80687568 0.80632697 0.80578091 0.80523748
 0.80469669 0.80415853 0.80362298 0.80309004 0.8025597  0.80203195
 0.80150679 0.8009842  0.80046419 0.79994673 0.79943183 0.79891948
 0.79840967 0.79790239 0.79739763 0.79689539 0.79639566 0.79589844
 0.7954037  0.79491146 0.79442169 0.7939344  0.79344957 0.79296721
 0.79248729 0.79200982 0.79153478 0.79106217 0.79059199 0.79012422
 0.78965886 0.78919591 0.78873534 0.78827717 0.78782138 0.78736796
 0.78691691 0.78646821 0.78602188 0.78557788 0.78513623 0.78469692
 0.78425992 0.78382525 0.7833929  0.78296285 0.7825351  0.78210964
 0.78168647 0.78126558 0.78084697 0.78043062 0.78001654 0.77960471
 0.77919513 0.77878779 0.77838268 0.77797981 0.77757916 0.77718073
 0.77678451 0.77639049 0.77599867 0.77560905 0.77522161 0.77483635
 0.77445326 0.77407235 0.77369359 0.77331699 0.77294255 0.77257024
 0.77220008 0.77183204 0.77146613 0.77110235 0.77074068 0.77038111
 0.77002365 0.76966829 0.76931502 0.76896384 0.76861473 0.7682677
 0.76792274 0.76757985 0.76723901 0.76690022 0.76656348 0.76622878
 0.76589611 0.76556548 0.76523687 0.76491028 0.7645857  0.76426313
 0.76394256 0.76362399 0.76330741 0.76299282 0.76268021 0.76236958
 0.76206092 0.76175422 0.76144948 0.7611467  0.76084587 0.76054698
 0.76025003 0.75995502 0.75966193 0.75937077 0.75908153 0.75879421
 0.75850879 0.75822527 0.75794366 0.75766394 0.75738611 0.75711016
 0.75683609 0.7565639  0.75629357 0.75602511 0.75575851 0.75549377
 0.75523087 0.75496982 0.75471061 0.75445324 0.7541977  0.75394398
 0.75369208 0.75344201 0.75319374 0.75294728 0.75270263 0.75245977
 0.75221871 0.75197943 0.75174194 0.75150623 0.7512723  0.75104014
 0.75080974 0.75058111 0.75035423 0.7501291  0.74990573 0.7496841
 0.74946421 0.74924605 0.74902963 0.74881493 0.74860196 0.7483907
 0.74818116 0.74797332 0.7477672  0.74756277 0.74736004 0.747159
 0.74695965 0.74676199 0.74656601 0.7463717  0.74617906 0.74598809
 0.74579879 0.74561114 0.74542515 0.74524081 0.74505812 0.74487707
 0.74469766 0.74451989 0.74434374 0.74416923 0.74399634 0.74382506
 0.7436554  0.74348736 0.74332092 0.74315609 0.74299285 0.74283121
 0.74267117 0.74251271 0.74235583 0.74220054 0.74204682 0.74189468
 0.74174411 0.7415951  0.74144765 0.74130177 0.74115743 0.74101465
 0.74087342 0.74073373 0.74059557 0.74045896 0.74032387 0.74019032
 0.74005829 0.73992779 0.7397988  0.73967132 0.73954536 0.7394209
 0.73929795 0.7391765  0.73905655 0.73893809 0.73882112 0.73870564
 0.73859164 0.73847912 0.73836807 0.7382585  0.7381504  0.73804377
 0.7379386  0.73783488 0.73773263 0.73763182 0.73753247 0.73743456
 0.7373381  0.73724307 0.73714949 0.73705733 0.73696661 0.73687731
 0.73678943 0.73670298 0.73661794 0.73653431 0.7364521  0.73637129
 0.73629189 0.73621389 0.73613729 0.73606208 0.73598827 0.73591584
 0.7358448  0.73577514 0.73570686 0.73563996 0.73557443 0.73551027
 0.73544748 0.73538606 0.73532599 0.73526728 0.73520993 0.73515393
 0.73509929 0.73504598 0.73499403 0.73494341 0.73489413 0.73484618
 0.73479957 0.73475429 0.73471033 0.7346677  0.73462638 0.73458639
 0.73454771 0.73451034 0.73447428 0.73443953 0.73440608 0.73437393
 0.73434308 0.73431353 0.73428527 0.7342583  0.73423262 0.73420822
 0.7341851  0.73416326 0.7341427  0.73412341 0.7341054  0.73408865
 0.73407317 0.73405895 0.73404599 0.73403429 0.73402385 0.73401466
 0.73400672 0.73400002 0.73399458 0.73399037 0.73398741 0.73398568
 0.73398518 0.73398592 0.73398789 0.73399109 0.73399551 0.73400115
 0.73400802 0.7340161  0.73402539 0.7340359  0.73404762 0.73406055
 0.73407468 0.73409001 0.73410655 0.73412428 0.73414321 0.73416333
 0.73418465 0.73420715 0.73423084 0.73425571 0.73428176 0.73430899
 0.7343374  0.73436699 0.73439774 0.73442967 0.73446277 0.73449703
 0.73453245 0.73456903 0.73460678 0.73464567 0.73468573 0.73472693
 0.73476929 0.73481279 0.73485744 0.73490323 0.73495016 0.73499824
 0.73504744 0.73509779 0.73514926 0.73520187 0.7352556  0.73531046
 0.73536645 0.73542355 0.73548178 0.73554112 0.73560158 0.73566315
 0.73572583 0.73578962 0.73585452 0.73592053 0.73598764 0.73605584
 0.73612515 0.73619556 0.73626706 0.73633965 0.73641334 0.73648811
 0.73656397 0.73664092 0.73671895 0.73679806 0.73687825 0.73695952
 0.73704186 0.73712527 0.73720976 0.73729532 0.73738195 0.73746964
 0.73755839 0.73764821 0.73773909 0.73783102 0.73792402 0.73801806
 0.73811316 0.73820932 0.73830652 0.73840476 0.73850406 0.73860439
 0.73870577 0.73880819 0.73891165 0.73901614 0.73912167 0.73922824
 0.73933583 0.73944445 0.7395541  0.73966478 0.73977648 0.7398892
 0.74000295 0.74011771 0.74023349 0.74035029 0.7404681  0.74058692
 0.74070676 0.7408276  0.74094945 0.7410723  0.74119616 0.74132103
 0.74144689 0.74157375 0.74170161 0.74183047 0.74196032 0.74209116
 0.74222299 0.74235582 0.74248963 0.74262442 0.74276021 0.74289697
 0.74303472 0.74317345 0.74331315 0.74345383 0.74359549 0.74373812
 0.74388173 0.7440263  0.74417185 0.74431836 0.74446584 0.74461428
 0.74476369 0.74491406 0.74506539 0.74521767 0.74537092 0.74552512
 0.74568028 0.74583639 0.74599345 0.74615146 0.74631042 0.74647033
 0.74663118 0.74679298 0.74695572 0.74711941 0.74728403 0.74744959
 0.74761609 0.74778353 0.7479519  0.74812121 0.74829145 0.74846262
 0.74863471 0.74880774 0.7489817  0.74915657 0.74933238 0.7495091
 0.74968675 0.74986532 0.75004481 0.75022521 0.75040653 0.75058877
 0.75077192 0.75095599 0.75114096 0.75132685 0.75151364 0.75170134
 0.75188995 0.75207946 0.75226988 0.7524612  0.75265342 0.75284654
 0.75304056 0.75323548 0.7534313  0.75362801 0.75382561 0.75402411
 0.7542235  0.75442378 0.75462495 0.75482701 0.75502996 0.75523379
 0.75543851 0.75564411 0.7558506  0.75605796 0.75626621 0.75647533
 0.75668534 0.75689622 0.75710798 0.75732061 0.75753412 0.7577485
 0.75796375 0.75817987 0.75839686 0.75861473 0.75883345 0.75905305
 0.75927351 0.75949483 0.75971702 0.75994007 0.76016398 0.76038875
 0.76061439 0.76084087 0.76106822 0.76129642 0.76152548 0.76175539
 0.76198616 0.76221778 0.76245025 0.76268357 0.76291774 0.76315275
 0.76338862 0.76362533 0.76386289 0.76410129 0.76434054 0.76458062
 0.76482156 0.76506333 0.76530594 0.76554939 0.76579368 0.7660388
 0.76628477 0.76653156 0.7667792  0.76702766 0.76727696 0.76752709
 0.76777806 0.76802985 0.76828247 0.76853592 0.7687902  0.76904531
 0.76930124 0.769558   0.76981558 0.77007398 0.77033321 0.77059326
 0.77085413 0.77111582 0.77137833 0.77164166 0.77190581 0.77217077
 0.77243655 0.77270315 0.77297056 0.77323878 0.77350782 0.77377767
 0.77404834 0.77431981 0.77459209 0.77486519 0.77513909 0.7754138
 0.77568932 0.77596564 0.77624277 0.77652071 0.77679945 0.77707899
 0.77735934 0.77764049 0.77792244 0.77820519 0.77848875 0.7787731
 0.77905825 0.7793442  0.77963095 0.77991849 0.78020683 0.78049597
 0.7807859  0.78107662 0.78136814 0.78166045 0.78195356 0.78224746
 0.78254214 0.78283762 0.78313389 0.78343095 0.7837288  0.78402743
 0.78432685 0.78462706 0.78492806 0.78522984 0.78553241 0.78583576
 0.7861399  0.78644482 0.78675052 0.787057   0.78736427 0.78767232
 0.78798115 0.78829076 0.78860115 0.78891232 0.78922426 0.78953699
 0.78985049 0.79016477 0.79047983 0.79079566 0.79111227 0.79142965
 0.79174781 0.79206675 0.79238645 0.79270693 0.79302818 0.79335021
 0.793673   0.79399657 0.79432091 0.79464602 0.7949719  0.79529855
 0.79562596 0.79595415 0.79628311 0.79661283 0.79694332 0.79727457
 0.7976066  0.79793938 0.79827294 0.79860726 0.79894234 0.79927819
 0.79961481 0.79995218 0.80029032 0.80062923 0.80096889 0.80130932
 0.80165051 0.80199246 0.80233517 0.80267865 0.80302288 0.80336788
 0.80371363 0.80406014 0.80440741 0.80475544 0.80510423 0.80545378
 0.80580408 0.80615514 0.80650696 0.80685954 0.80721287 0.80756696
 0.8079218  0.8082774  0.80863376 0.80899087 0.80934873 0.80970735
 0.81006672 0.81042685 0.81078773 0.81114936 0.81151175 0.81187489
 0.81223878 0.81260343 0.81296882 0.81333497 0.81370187 0.81406953
 0.81443793 0.81480708 0.81517699 0.81554764 0.81591905 0.8162912
 0.81666411 0.81703776 0.81741217 0.81778732 0.81816323 0.81853988
 0.81891728 0.81929543 0.81967432 0.82005397 0.82043436 0.82081551
 0.8211974  0.82158003 0.82196342 0.82234755 0.82273243 0.82311805
 0.82350443 0.82389155 0.82427941 0.82466803 0.82505739 0.82544749
 0.82583834 0.82622994 0.82662228 0.82701537 0.82740921 0.82780379
 0.82819911 0.82859519 0.828992   0.82938956 0.82978787 0.83018692
 0.83058672 0.83098727 0.83138855 0.83179059 0.83219336 0.83259689
 0.83300115 0.83340616 0.83381192 0.83421842 0.83462567 0.83503366
 0.83544239 0.83585187 0.8362621  0.83667306 0.83708478 0.83749723
 0.83791044 0.83832438 0.83873907 0.83915451 0.83957069 0.83998761
 0.84040528 0.8408237  0.84124285 0.84166276 0.84208341 0.8425048
 0.84292694 0.84334982 0.84377344 0.84419782 0.84462293 0.8450488
 0.8454754  0.84590275 0.84633085 0.8467597  0.84718928 0.84761962
 0.8480507  0.84848252 0.84891509 0.84934841 0.84978247 0.85021728
 0.85065284 0.85108914 0.85152619 0.85196398 0.85240252 0.85284181
 0.85328184 0.85372263 0.85416416 0.85460643 0.85504946 0.85549323
 0.85593775 0.85638302 0.85682903 0.85727579]
t = [1.10076915e+09 1.10076920e+09 1.10076924e+09 1.10076929e+09
 1.10076933e+09 1.10076938e+09 1.10076943e+09 1.10076947e+09
 1.10076952e+09 1.10076957e+09 1.10076961e+09 1.10076966e+09
 1.10076970e+09 1.10076975e+09 1.10076980e+09 1.10076984e+09
 1.10076989e+09 1.10076993e+09 1.10076998e+09 1.10077003e+09
 1.10077007e+09 1.10077012e+09 1.10077016e+09 1.10077021e+09
 1.10077026e+09 1.10077030e+09 1.10077035e+09 1.10077039e+09
 1.10077044e+09 1.10077049e+09 1.10077053e+09 1.10077058e+09
 1.10077063e+09 1.10077067e+09 1.10077072e+09 1.10077076e+09
 1.10077081e+09 1.10077086e+09 1.10077090e+09 1.10077095e+09
 1.10077099e+09 1.10077104e+09 1.10077109e+09 1.10077113e+09
 1.10077118e+09 1.10077122e+09 1.10077127e+09 1.10077132e+09
 1.10077136e+09 1.10077141e+09 1.10077145e+09 1.10077150e+09
 1.10077155e+09 1.10077159e+09 1.10077164e+09 1.10077169e+09
 1.10077173e+09 1.10077178e+09 1.10077182e+09 1.10077187e+09
 1.10077192e+09 1.10077196e+09 1.10077201e+09 1.10077205e+09
 1.10077210e+09 1.10077215e+09 1.10077219e+09 1.10077224e+09
 1.10077228e+09 1.10077233e+09 1.10077238e+09 1.10077242e+09
 1.10077247e+09 1.10077252e+09 1.10077256e+09 1.10077261e+09
 1.10077265e+09 1.10077270e+09 1.10077275e+09 1.10077279e+09
 1.10077284e+09 1.10077288e+09 1.10077293e+09 1.10077298e+09
 1.10077302e+09 1.10077307e+09 1.10077311e+09 1.10077316e+09
 1.10077321e+09 1.10077325e+09 1.10077330e+09 1.10077334e+09
 1.10077339e+09 1.10077344e+09 1.10077348e+09 1.10077353e+09
 1.10077358e+09 1.10077362e+09 1.10077367e+09 1.10077371e+09
 1.10077376e+09 1.10077381e+09 1.10077385e+09 1.10077390e+09
 1.10077394e+09 1.10077399e+09 1.10077404e+09 1.10077408e+09
 1.10077413e+09 1.10077417e+09 1.10077422e+09 1.10077427e+09
 1.10077431e+09 1.10077436e+09 1.10077441e+09 1.10077445e+09
 1.10077450e+09 1.10077454e+09 1.10077459e+09 1.10077464e+09
 1.10077468e+09 1.10077473e+09 1.10077477e+09 1.10077482e+09
 1.10077487e+09 1.10077491e+09 1.10077496e+09 1.10077500e+09
 1.10077505e+09 1.10077510e+09 1.10077514e+09 1.10077519e+09
 1.10077523e+09 1.10077528e+09 1.10077533e+09 1.10077537e+09
 1.10077542e+09 1.10077547e+09 1.10077551e+09 1.10077556e+09
 1.10077560e+09 1.10077565e+09 1.10077570e+09 1.10077574e+09
 1.10077579e+09 1.10077583e+09 1.10077588e+09 1.10077593e+09
 1.10077597e+09 1.10077602e+09 1.10077606e+09 1.10077611e+09
 1.10077616e+09 1.10077620e+09 1.10077625e+09 1.10077630e+09
 1.10077634e+09 1.10077639e+09 1.10077643e+09 1.10077648e+09
 1.10077653e+09 1.10077657e+09 1.10077662e+09 1.10077666e+09
 1.10077671e+09 1.10077676e+09 1.10077680e+09 1.10077685e+09
 1.10077689e+09 1.10077694e+09 1.10077699e+09 1.10077703e+09
 1.10077708e+09 1.10077712e+09 1.10077717e+09 1.10077722e+09
 1.10077726e+09 1.10077731e+09 1.10077736e+09 1.10077740e+09
 1.10077745e+09 1.10077749e+09 1.10077754e+09 1.10077759e+09
 1.10077763e+09 1.10077768e+09 1.10077772e+09 1.10077777e+09
 1.10077782e+09 1.10077786e+09 1.10077791e+09 1.10077795e+09
 1.10077800e+09 1.10077805e+09 1.10077809e+09 1.10077814e+09
 1.10077819e+09 1.10077823e+09 1.10077828e+09 1.10077832e+09
 1.10077837e+09 1.10077842e+09 1.10077846e+09 1.10077851e+09
 1.10077855e+09 1.10077860e+09 1.10077865e+09 1.10077869e+09
 1.10077874e+09 1.10077878e+09 1.10077883e+09 1.10077888e+09
 1.10077892e+09 1.10077897e+09 1.10077901e+09 1.10077906e+09
 1.10077911e+09 1.10077915e+09 1.10077920e+09 1.10077925e+09
 1.10077929e+09 1.10077934e+09 1.10077938e+09 1.10077943e+09
 1.10077948e+09 1.10077952e+09 1.10077957e+09 1.10077961e+09
 1.10077966e+09 1.10077971e+09 1.10077975e+09 1.10077980e+09
 1.10077984e+09 1.10077989e+09 1.10077994e+09 1.10077998e+09
 1.10078003e+09 1.10078007e+09 1.10078012e+09 1.10078017e+09
 1.10078021e+09 1.10078026e+09 1.10078031e+09 1.10078035e+09
 1.10078040e+09 1.10078044e+09 1.10078049e+09 1.10078054e+09
 1.10078058e+09 1.10078063e+09 1.10078067e+09 1.10078072e+09
 1.10078077e+09 1.10078081e+09 1.10078086e+09 1.10078090e+09
 1.10078095e+09 1.10078100e+09 1.10078104e+09 1.10078109e+09
 1.10078114e+09 1.10078118e+09 1.10078123e+09 1.10078127e+09
 1.10078132e+09 1.10078137e+09 1.10078141e+09 1.10078146e+09
 1.10078150e+09 1.10078155e+09 1.10078160e+09 1.10078164e+09
 1.10078169e+09 1.10078173e+09 1.10078178e+09 1.10078183e+09
 1.10078187e+09 1.10078192e+09 1.10078196e+09 1.10078201e+09
 1.10078206e+09 1.10078210e+09 1.10078215e+09 1.10078220e+09
 1.10078224e+09 1.10078229e+09 1.10078233e+09 1.10078238e+09
 1.10078243e+09 1.10078247e+09 1.10078252e+09 1.10078256e+09
 1.10078261e+09 1.10078266e+09 1.10078270e+09 1.10078275e+09
 1.10078279e+09 1.10078284e+09 1.10078289e+09 1.10078293e+09
 1.10078298e+09 1.10078303e+09 1.10078307e+09 1.10078312e+09
 1.10078316e+09 1.10078321e+09 1.10078326e+09 1.10078330e+09
 1.10078335e+09 1.10078339e+09 1.10078344e+09 1.10078349e+09
 1.10078353e+09 1.10078358e+09 1.10078362e+09 1.10078367e+09
 1.10078372e+09 1.10078376e+09 1.10078381e+09 1.10078385e+09
 1.10078390e+09 1.10078395e+09 1.10078399e+09 1.10078404e+09
 1.10078409e+09 1.10078413e+09 1.10078418e+09 1.10078422e+09
 1.10078427e+09 1.10078432e+09 1.10078436e+09 1.10078441e+09
 1.10078445e+09 1.10078450e+09 1.10078455e+09 1.10078459e+09
 1.10078464e+09 1.10078468e+09 1.10078473e+09 1.10078478e+09
 1.10078482e+09 1.10078487e+09 1.10078492e+09 1.10078496e+09
 1.10078501e+09 1.10078505e+09 1.10078510e+09 1.10078515e+09
 1.10078519e+09 1.10078524e+09 1.10078528e+09 1.10078533e+09
 1.10078538e+09 1.10078542e+09 1.10078547e+09 1.10078551e+09
 1.10078556e+09 1.10078561e+09 1.10078565e+09 1.10078570e+09
 1.10078574e+09 1.10078579e+09 1.10078584e+09 1.10078588e+09
 1.10078593e+09 1.10078598e+09 1.10078602e+09 1.10078607e+09
 1.10078611e+09 1.10078616e+09 1.10078621e+09 1.10078625e+09
 1.10078630e+09 1.10078634e+09 1.10078639e+09 1.10078644e+09
 1.10078648e+09 1.10078653e+09 1.10078657e+09 1.10078662e+09
 1.10078667e+09 1.10078671e+09 1.10078676e+09 1.10078680e+09
 1.10078685e+09 1.10078690e+09 1.10078694e+09 1.10078699e+09
 1.10078704e+09 1.10078708e+09 1.10078713e+09 1.10078717e+09
 1.10078722e+09 1.10078727e+09 1.10078731e+09 1.10078736e+09
 1.10078740e+09 1.10078745e+09 1.10078750e+09 1.10078754e+09
 1.10078759e+09 1.10078763e+09 1.10078768e+09 1.10078773e+09
 1.10078777e+09 1.10078782e+09 1.10078787e+09 1.10078791e+09
 1.10078796e+09 1.10078800e+09 1.10078805e+09 1.10078810e+09
 1.10078814e+09 1.10078819e+09 1.10078823e+09 1.10078828e+09
 1.10078833e+09 1.10078837e+09 1.10078842e+09 1.10078846e+09
 1.10078851e+09 1.10078856e+09 1.10078860e+09 1.10078865e+09
 1.10078869e+09 1.10078874e+09 1.10078879e+09 1.10078883e+09
 1.10078888e+09 1.10078893e+09 1.10078897e+09 1.10078902e+09
 1.10078906e+09 1.10078911e+09 1.10078916e+09 1.10078920e+09
 1.10078925e+09 1.10078929e+09 1.10078934e+09 1.10078939e+09
 1.10078943e+09 1.10078948e+09 1.10078952e+09 1.10078957e+09
 1.10078962e+09 1.10078966e+09 1.10078971e+09 1.10078976e+09
 1.10078980e+09 1.10078985e+09 1.10078989e+09 1.10078994e+09
 1.10078999e+09 1.10079003e+09 1.10079008e+09 1.10079012e+09
 1.10079017e+09 1.10079022e+09 1.10079026e+09 1.10079031e+09
 1.10079035e+09 1.10079040e+09 1.10079045e+09 1.10079049e+09
 1.10079054e+09 1.10079058e+09 1.10079063e+09 1.10079068e+09
 1.10079072e+09 1.10079077e+09 1.10079082e+09 1.10079086e+09
 1.10079091e+09 1.10079095e+09 1.10079100e+09 1.10079105e+09
 1.10079109e+09 1.10079114e+09 1.10079118e+09 1.10079123e+09
 1.10079128e+09 1.10079132e+09 1.10079137e+09 1.10079141e+09
 1.10079146e+09 1.10079151e+09 1.10079155e+09 1.10079160e+09
 1.10079165e+09 1.10079169e+09 1.10079174e+09 1.10079178e+09
 1.10079183e+09 1.10079188e+09 1.10079192e+09 1.10079197e+09
 1.10079201e+09 1.10079206e+09 1.10079211e+09 1.10079215e+09
 1.10079220e+09 1.10079224e+09 1.10079229e+09 1.10079234e+09
 1.10079238e+09 1.10079243e+09 1.10079247e+09 1.10079252e+09
 1.10079257e+09 1.10079261e+09 1.10079266e+09 1.10079271e+09
 1.10079275e+09 1.10079280e+09 1.10079284e+09 1.10079289e+09
 1.10079294e+09 1.10079298e+09 1.10079303e+09 1.10079307e+09
 1.10079312e+09 1.10079317e+09 1.10079321e+09 1.10079326e+09
 1.10079330e+09 1.10079335e+09 1.10079340e+09 1.10079344e+09
 1.10079349e+09 1.10079354e+09 1.10079358e+09 1.10079363e+09
 1.10079367e+09 1.10079372e+09 1.10079377e+09 1.10079381e+09
 1.10079386e+09 1.10079390e+09 1.10079395e+09 1.10079400e+09
 1.10079404e+09 1.10079409e+09 1.10079413e+09 1.10079418e+09
 1.10079423e+09 1.10079427e+09 1.10079432e+09 1.10079436e+09
 1.10079441e+09 1.10079446e+09 1.10079450e+09 1.10079455e+09
 1.10079460e+09 1.10079464e+09 1.10079469e+09 1.10079473e+09
 1.10079478e+09 1.10079483e+09 1.10079487e+09 1.10079492e+09
