name =JUICE_ROI_GAN_4_6_01
flyby = ['2034 NOV 18 09:58:51', '2034 NOV 19 09:58:51']
Observation TW = <SpiceCell dtype = 1, length = 0, size = 3000, card = 10, is_set = 1, adjust = 0, init = 1, base = 93831231250784, data = 93831231250832>
Res(t) = [1.12258093 1.12083619 1.11909309 1.11735164 1.11561185 1.11387373
 1.11213728 1.11040251 1.10866942 1.10693803 1.10520834 1.10348036
 1.10175409 1.10002955 1.09830673 1.09658565 1.09486632 1.09314874
 1.09143291 1.08971886 1.08800657 1.08629607 1.08458736 1.08288044
 1.08117532 1.07947201 1.07777053 1.07607086 1.07437303 1.07267704
 1.0709829  1.06929061 1.06760018 1.06591162 1.06422494 1.06254015
 1.06085725 1.05917624 1.05749715 1.05581997 1.05414471 1.05247139
 1.0508     1.04913055 1.04746306 1.04579753 1.04413397 1.04247238
 1.04081278 1.03915517 1.03749956 1.03584595 1.03419436 1.03254479
 1.03089725 1.02925175 1.02760829 1.02596689 1.02432755 1.02269027
 1.02105507 1.01942196 1.01779093 1.01616201 1.01453519 1.01291049
 1.01128791 1.00966746 1.00804915 1.00643298 1.00481897 1.00320712
 1.00159744 0.99998994 0.99838462 0.9967815  0.99518058 0.99358186
 0.99198536 0.99039109 0.98879905 0.98720924 0.98562169 0.98403639
 0.98245336 0.98087259 0.97929411 0.97771791 0.97614401 0.97457241
 0.97300312 0.97143615 0.9698715  0.96830919 0.96674922 0.9651916
 0.96363634 0.96208344 0.96053292 0.95898478 0.95743902 0.95589567
 0.95435472 0.95281618 0.95128006 0.94974637 0.94821511 0.9466863
 0.94515994 0.94363603 0.9421146  0.94059564 0.93907916 0.93756518
 0.93605369 0.93454471 0.93303824 0.93153429 0.93003287 0.92853399
 0.92703765 0.92554387 0.92405264 0.92256399 0.92107791 0.91959441
 0.9181135  0.91663519 0.91515949 0.9136864  0.91221594 0.9107481
 0.9092829  0.90782035 0.90636044 0.9049032  0.90344862 0.90199672
 0.9005475  0.89910097 0.89765714 0.89621601 0.89477759 0.8933419
 0.89190893 0.8904787  0.88905121 0.88762647 0.88620449 0.88478528
 0.88336883 0.81957386 0.81839549 0.81721931 0.81604533 0.81487355
 0.81370398 0.81253663 0.81137149 0.81020859 0.80904791 0.80788948
 0.80673329 0.80557935 0.80442767 0.80327825 0.8021311  0.80098622
 0.79984363 0.79870333 0.79756532 0.79642961 0.7952962  0.79416511
 0.79303634 0.79190989 0.79078577 0.78966399 0.78854455 0.78742746
 0.78631273 0.78520036 0.78409035 0.78298272 0.78187747 0.7807746
 0.77967413 0.77857605 0.77748038 0.77638712 0.77529627 0.77420785
 0.77312186 0.7720383  0.77095719 0.76987852 0.7688023  0.76772855
 0.76665725 0.76558844 0.7645221  0.76345824 0.76239687 0.761338
 0.76028164 0.75922778 0.75817643 0.75712761 0.75608131 0.75503755
 0.75399632 0.75295765 0.75192152 0.75088795 0.74985694 0.7488285
 0.74780264 0.74677936 0.74575866 0.74474056 0.74372506 0.74271217
 0.74170188 0.74069422 0.73968917 0.73868676 0.73768698 0.73668985
 0.73569536 0.73470352 0.73371435 0.73272784 0.731744   0.73076284
 0.72978436 0.72880857 0.72783547 0.72686507 0.72589739 0.72493241
 0.72397015 0.72301062 0.72205381 0.72109974 0.72014841 0.71919983
 0.718254   0.71731093 0.71637063 0.71543309 0.71449833 0.71356636
 0.71263716 0.71171077 0.71078717 0.70986637 0.70894838 0.70803321
 0.70712086 0.70621134 1.48038173 1.38867148 1.28434776 1.2200272
 1.17435516 1.13931884 1.11109003 1.08755989 1.06745071 1.04993358
 1.03444213 1.0205734  1.00803116 0.99659168 0.98608217 0.97636656
 0.96733593 0.95890185 0.95099156 0.94354457 0.93651006 0.92984498
 0.92351252 0.91748102 0.91172304 0.90621465 0.9009349  0.89586529
 0.89098948 0.88629292 0.88176262 0.87738692 0.87315536 0.86905848
 0.86508772 0.8612353  0.85749413 0.85385776 0.85032025 0.84687619
 0.84352057 0.84024879 0.8370566  0.83394006 0.83089554 0.82743553
 0.82453786 0.82170214 0.81892568 0.81620596 0.81354062 0.81092745
 0.80836437 0.80584943 0.8033808  0.80095676 0.79857568 0.79623601
 0.79393632 0.79167522 0.78945142 0.78726369 0.78511085 0.78299182
 0.78090552 0.77885096 0.7768272  0.77483332 0.77286847 0.77093181
 0.76902257 0.76713999 0.76528337 0.763452   0.76164525 0.75986248
 0.7581031  0.75636653 0.75465221 0.75295962 0.75128825 0.74963761
 0.74800724 0.74639668 0.7448055  0.74323329 0.74167964 0.74014417
 0.73862651 0.73712629 0.73564317 0.73417682 0.73272691 0.73129314
 0.7298752  0.68316224 0.68202982 0.68090907 0.6797998  0.67870181
 0.67761494 0.67653899 0.67547381 0.67441922 0.67337507 0.67234119
 0.67131745 0.67030369 0.66929977 0.66830556 0.66732092 0.66634573
 0.66537984 0.66442316 0.66347555 0.6625369  0.6616071  0.66068604
 0.65977362 0.65886972 0.65797426 0.65708713 0.65620823 0.65533749
 0.6544748  0.65362007 0.65277323 0.65193419 0.65110287 0.65027918
 0.64946306 0.64865442 0.64785319 0.64705931 0.6462727  0.64549329
 0.64472101 0.64395581 0.64319761 0.64244636 0.64170199 0.64096445
 0.64023368 0.63950962 0.63879221 0.63808141 0.63737715 0.63667939
 0.63598808 0.63530316 0.63462459 0.63395232 0.63328631 0.6326265
 0.63197286 0.63132533 0.63068389 0.63004848 0.62941907 0.62879561
 0.62817806 0.62756639 0.62696056 0.62636053 0.62576627 0.62517773
 0.62459489 0.62401771 0.62344615 0.62288019 0.62231979 0.62176492
 0.62121554 0.62067163 0.62013315 0.61960008 0.61907239 0.61855005
 0.61803302 0.61752129 0.61701483 0.6165136  0.61601759 0.61552676
 0.61504109 0.61456056 0.61408514 0.61361481 0.61314954 0.61268931
 0.61223409 0.61178387 0.61133863 0.61089833 0.61046296 0.6100325
 0.60960692 0.60918621 0.60877034 0.60835929 0.60795305 0.6075516
 0.60715491 0.60676297 0.60637575 0.60599325 0.60561544 0.6052423
 0.60487381 0.60450997 0.60415074 0.60379612 0.60344609 0.60310062
 0.60275971 0.60242334 0.6020915  0.60176415 0.6014413  0.60112293
 0.60080901 0.60049954 0.6001945  0.59989388 0.59959766 0.59930582
 0.59901836 0.59873526 0.5984565  0.59818208 0.59791197 0.59764617
 0.59738466 0.59712742 0.59687446 0.59662574 0.59638127 0.59614102
 0.59590498 0.59567315 0.59544552 0.59522205 0.59500276 0.59478762
 0.59457662 0.59436976 0.59416701 0.59396837 0.59377384 0.59358338
 0.593397   0.59321469 0.59303643 0.59286221 0.59269202 0.59252585
 0.5923637  0.59220554 0.59205138 0.59190119 0.59175497 0.59161272
 0.59147441 0.59134004 0.5912096  0.59108308 0.59096047 0.59084176
 0.59072694 0.590616   0.59050893 0.59040573 0.59030638 0.59021087
 0.5901192  0.59003135 0.58994732 0.58986709 0.58979067 0.58971803
 0.58964918 0.58958409 0.58952278 0.58946521 0.58941139 0.58936131
 0.58931496 0.58927233 0.58923341 0.58919819 0.58916667 0.58913883
 0.58911468 0.58909419 0.58907737 0.58906421 0.58905469 0.5890488
 0.58904655 0.58904792 0.58905291 0.5890615  0.58907369 0.58908948
 0.58910884 0.58913179 0.5891583  0.58918837 0.58922199 0.58925916
 0.58929987 0.58934411 0.58939187 0.58944315 0.58949794 0.58955622
 0.58961801 0.58968327 0.58975202 0.58982424 0.58989992 0.58997906
 0.59006166 0.59014769 0.59023716 0.59033006 0.59042639 0.59052613
 0.59062928 0.59073582 0.59084577 0.5909591  0.59107581 0.5911959
 0.59131935 0.59144617 0.59157634 0.59170985 0.59184671 0.5919869
 0.59213042 0.59227726 0.59242741 0.59258087 0.59273763 0.59289768
 0.59306103 0.59322765 0.59339755 0.59357072 0.59374715 0.59392684
 0.59410978 0.59429596 0.59448537 0.59467802 0.59487389 0.59507298
 0.59527529 0.5954808  0.5956895  0.59590141 0.5961165  0.59633477
 0.59655622 0.59678083 0.59700861 0.59723955 0.59747364 0.59771087
 0.59795124 0.59819475 0.59844139 0.59869114 0.59894401 0.5992
 0.59945908 0.59972127 0.59998655 0.60025491 0.60052636 0.60080088
 0.60107847 0.60135913 0.60164285 0.60192961 0.60221943 0.60251229
 0.60280818 0.60310711 0.60340906 0.60371403 0.60402201 0.60433301
 0.60464701 0.604964   0.60528399 0.60560697 0.60593293 0.60626187
 0.60659377 0.60692865 0.60726649 0.60760728 0.60795102 0.60829771
 0.60864734 0.6089999  0.6093554  0.60971382 0.61007516 0.61043942
 0.61080658 0.61117665 0.61154963 0.61192549 0.61230425 0.6126859
 0.61307042 0.61345782 0.61384809 0.61424123 0.64123743 0.64167365
 0.64211311 0.64255582 0.64300177 0.64345096 0.64390338 0.64435902
 0.64481789 0.64527997 0.64574527 0.64621378 0.64668548 0.64716039
 0.6476385  0.64811979 0.64860428 0.64909194 0.64958278 0.6500768
 0.65057399 0.65107434 0.65157785 0.65208453 0.65259435 0.65310733
 0.65362345 0.65414272 0.65466512 0.65519066 0.65571932 0.65625112
 0.65678604 0.65732407 0.65786523 0.6584095  0.65895687 0.65950735
 0.66006094 0.66061762 0.6611774  0.66174027 0.66230622 0.66287527
 0.66344739 0.6640226  0.66460088 0.66518224 0.66576666 0.66635415
 0.66694471 0.66753833 0.668135   0.66873473 0.66933752 0.66994335
 0.67055223 0.67116416 0.67177913 0.67239714 0.67301818 0.67364226
 0.67426937 0.67489952 0.67553269 0.67616888 0.6768081  0.67745034
 0.6780956  0.67874388 0.67939517 0.68004948 0.68070679 0.68136712
 0.68203045 0.68269679 0.68336613 0.68403847 0.68471382 0.68539216
 0.68607351 0.68675784 0.68744518 0.6881355  0.68882882 0.68952513
 0.69022443 0.69092672 0.69163199 0.69234026 0.6930515  0.69376574
 0.69448295 0.69520315 0.69592633 0.69665249 0.69738164 0.69811376
 0.69884887 0.69958695 0.70032801 0.70107205 0.70181907 0.70256907
 0.70332205 0.704078   0.70483694 0.70559885 0.70636373 0.7071316
 0.70790245 0.70867627 0.70945308 0.71023286 0.71101563 0.71180137
 0.7125901  0.71338181 0.7141765  0.71497418 0.71577484 0.71657849
 0.71738512 0.71819475 0.71900736 0.71982296 0.72064156 0.72146314
 0.72228773 0.72311531 0.72394588 0.72477946 0.72561604 0.72645563
 0.72729822 0.72814381 0.72899242 0.72984404 0.73069868 0.73155633
 0.732417   0.73328069 0.73414741 0.73501715 0.73588993 0.73676574
 0.73764458 0.73852647 0.7394114  0.74029937 0.74119039 0.74208447
 0.7429816  0.74388179 0.74478505 0.74569137 0.74660077 0.74751324
 0.74842879 0.74934743 0.75026915 0.75119397 0.75212189 0.7530529
 0.75398703 0.75492427 0.75586462 0.7568081  0.75775471 0.75870445
 0.75965733 0.76061335 0.76157252 0.76253485 0.76350034 0.764469
 0.76544083 0.76641584 0.76739404 0.76837544 0.76936003 0.77034783
 0.77133885 0.79139784 0.79247844 0.79356291 0.77533521 0.7763424
 0.77735286 0.77836659 0.77938359 0.78040387 0.78142745 0.78245433
 0.78348452 0.78451803 0.78555486 0.78659504 0.78763855 0.78868543
 0.78973567 0.79078929 0.79184629 0.79290669 0.79397049 0.79503772
 0.79610837 0.79718246 0.79826    0.799341   0.80042547 0.80151343
 0.80260489 0.80369986 0.80479834 0.80590036 0.80700593 0.80811506
 0.80922776 0.81034405 0.81146394 0.81258744 0.81371458 0.81484535
 0.81597978 0.81711789 0.81825968 0.81940517 0.82055439 0.82170733
 0.82286403 0.8240245  0.82518874 0.82635679 0.82752866 0.82870436
 0.82988391 0.83106734 0.83225465 0.83344587 0.83464102 0.83584012
 0.83704318 0.83825022 0.83946128 0.84067636 0.84189549 0.84311868
 0.84434597 0.84557737 0.84681291 0.8480526  0.84929647 0.85054455
 0.85179686 0.85305342 0.85431425 0.85557939 0.85684886 0.85812268
 0.85940088 0.86068349 0.86197053 0.86326204 0.86455803 0.86585855
 0.80936612 0.81035374 0.81134319 0.81233447 0.81332759 0.81432253
 0.8153193  0.81631789 0.81731832 0.81832057 0.81932464 0.82033054
 0.82133826 0.82234781 0.82335918 0.82437237 0.82538739 0.82640422
 0.82742287 0.82844335 0.82946564 0.83048975 0.83151568 0.83254343
 0.833573   0.83460438 0.83563758 0.8366726  0.83770944 0.83874808
 0.83978855 0.84083083 0.84187492 0.84292083 0.84396856 0.8450181
 0.84606945 0.84712262 0.8481776  0.8492344  0.85029301 0.85135344
 0.85241567 0.85347973 0.85454559 0.85561327 0.85668277 0.85775408
 0.8588272  0.85990214 0.86097889 0.86205745]
t = [1.10072880e+09 1.10072889e+09 1.10072897e+09 1.10072906e+09
 1.10072915e+09 1.10072923e+09 1.10072932e+09 1.10072941e+09
 1.10072949e+09 1.10072958e+09 1.10072967e+09 1.10072975e+09
 1.10072984e+09 1.10072992e+09 1.10073001e+09 1.10073010e+09
 1.10073018e+09 1.10073027e+09 1.10073036e+09 1.10073044e+09
 1.10073053e+09 1.10073062e+09 1.10073070e+09 1.10073079e+09
 1.10073088e+09 1.10073096e+09 1.10073105e+09 1.10073114e+09
 1.10073122e+09 1.10073131e+09 1.10073139e+09 1.10073148e+09
 1.10073157e+09 1.10073165e+09 1.10073174e+09 1.10073183e+09
 1.10073191e+09 1.10073200e+09 1.10073209e+09 1.10073217e+09
 1.10073226e+09 1.10073235e+09 1.10073243e+09 1.10073252e+09
 1.10073261e+09 1.10073269e+09 1.10073278e+09 1.10073287e+09
 1.10073295e+09 1.10073304e+09 1.10073312e+09 1.10073321e+09
 1.10073330e+09 1.10073338e+09 1.10073347e+09 1.10073356e+09
 1.10073364e+09 1.10073373e+09 1.10073382e+09 1.10073390e+09
 1.10073399e+09 1.10073408e+09 1.10073416e+09 1.10073425e+09
 1.10073434e+09 1.10073442e+09 1.10073451e+09 1.10073459e+09
 1.10073468e+09 1.10073477e+09 1.10073485e+09 1.10073494e+09
 1.10073503e+09 1.10073511e+09 1.10073520e+09 1.10073529e+09
 1.10073537e+09 1.10073546e+09 1.10073555e+09 1.10073563e+09
 1.10073572e+09 1.10073581e+09 1.10073589e+09 1.10073598e+09
 1.10073607e+09 1.10073615e+09 1.10073624e+09 1.10073632e+09
 1.10073641e+09 1.10073650e+09 1.10073658e+09 1.10073667e+09
 1.10073676e+09 1.10073684e+09 1.10073693e+09 1.10073702e+09
 1.10073710e+09 1.10073719e+09 1.10073728e+09 1.10073736e+09
 1.10073745e+09 1.10073754e+09 1.10073762e+09 1.10073771e+09
 1.10073779e+09 1.10073788e+09 1.10073797e+09 1.10073805e+09
 1.10073814e+09 1.10073823e+09 1.10073831e+09 1.10073840e+09
 1.10073849e+09 1.10073857e+09 1.10073866e+09 1.10073875e+09
 1.10073883e+09 1.10073892e+09 1.10073901e+09 1.10073909e+09
 1.10073918e+09 1.10073927e+09 1.10073935e+09 1.10073944e+09
 1.10073952e+09 1.10073961e+09 1.10073970e+09 1.10073978e+09
 1.10073987e+09 1.10073996e+09 1.10074004e+09 1.10074013e+09
 1.10074022e+09 1.10074030e+09 1.10074039e+09 1.10074048e+09
 1.10074056e+09 1.10074065e+09 1.10074074e+09 1.10074082e+09
 1.10074091e+09 1.10074099e+09 1.10074108e+09 1.10074117e+09
 1.10074125e+09 1.10074134e+09 1.10074143e+09 1.10074151e+09
 1.10074160e+09 1.10074169e+09 1.10074177e+09 1.10074186e+09
 1.10074195e+09 1.10074203e+09 1.10074212e+09 1.10074221e+09
 1.10074229e+09 1.10074238e+09 1.10074247e+09 1.10074255e+09
 1.10074264e+09 1.10074272e+09 1.10074281e+09 1.10074290e+09
 1.10074298e+09 1.10074307e+09 1.10074316e+09 1.10074324e+09
 1.10074333e+09 1.10074342e+09 1.10074350e+09 1.10074359e+09
 1.10074368e+09 1.10074376e+09 1.10074385e+09 1.10074394e+09
 1.10074402e+09 1.10074411e+09 1.10074419e+09 1.10074428e+09
 1.10074437e+09 1.10074445e+09 1.10074454e+09 1.10074463e+09
 1.10074471e+09 1.10074480e+09 1.10074489e+09 1.10074497e+09
 1.10074506e+09 1.10074515e+09 1.10074523e+09 1.10074532e+09
 1.10074541e+09 1.10074549e+09 1.10074558e+09 1.10074567e+09
 1.10074575e+09 1.10074584e+09 1.10074592e+09 1.10074601e+09
 1.10074610e+09 1.10074618e+09 1.10074627e+09 1.10074636e+09
 1.10074644e+09 1.10074653e+09 1.10074662e+09 1.10074670e+09
 1.10074679e+09 1.10074688e+09 1.10074696e+09 1.10074705e+09
 1.10074714e+09 1.10074722e+09 1.10074731e+09 1.10074739e+09
 1.10074748e+09 1.10074757e+09 1.10074765e+09 1.10074774e+09
 1.10074783e+09 1.10074791e+09 1.10074800e+09 1.10074809e+09
 1.10074817e+09 1.10074826e+09 1.10074835e+09 1.10074843e+09
 1.10074852e+09 1.10074861e+09 1.10074869e+09 1.10074878e+09
 1.10074887e+09 1.10074895e+09 1.10074904e+09 1.10074912e+09
 1.10074921e+09 1.10074930e+09 1.10074938e+09 1.10074947e+09
 1.10074956e+09 1.10074964e+09 1.10074973e+09 1.10074982e+09
 1.10074990e+09 1.10074999e+09 1.10075008e+09 1.10075016e+09
 1.10075025e+09 1.10075034e+09 1.10075042e+09 1.10075051e+09
 1.10075059e+09 1.10075068e+09 1.10075077e+09 1.10075085e+09
 1.10075094e+09 1.10075103e+09 1.10075111e+09 1.10075120e+09
 1.10075129e+09 1.10075137e+09 1.10075146e+09 1.10075155e+09
 1.10075163e+09 1.10075172e+09 1.10075181e+09 1.10075189e+09
 1.10075198e+09 1.10075207e+09 1.10075215e+09 1.10075224e+09
 1.10075232e+09 1.10075241e+09 1.10075250e+09 1.10075258e+09
 1.10075267e+09 1.10075276e+09 1.10075284e+09 1.10075293e+09
 1.10075302e+09 1.10075310e+09 1.10075319e+09 1.10075328e+09
 1.10075336e+09 1.10075345e+09 1.10075354e+09 1.10075362e+09
 1.10075371e+09 1.10075379e+09 1.10075388e+09 1.10075397e+09
 1.10075405e+09 1.10075414e+09 1.10075423e+09 1.10075431e+09
 1.10075440e+09 1.10075449e+09 1.10075457e+09 1.10075466e+09
 1.10075475e+09 1.10075483e+09 1.10075492e+09 1.10075501e+09
 1.10075509e+09 1.10075518e+09 1.10075527e+09 1.10075535e+09
 1.10075544e+09 1.10075552e+09 1.10075561e+09 1.10075570e+09
 1.10075578e+09 1.10075587e+09 1.10075596e+09 1.10075604e+09
 1.10075613e+09 1.10075622e+09 1.10075630e+09 1.10075639e+09
 1.10075648e+09 1.10075656e+09 1.10075665e+09 1.10075674e+09
 1.10075682e+09 1.10075691e+09 1.10075699e+09 1.10075708e+09
 1.10075717e+09 1.10075725e+09 1.10075734e+09 1.10075743e+09
 1.10075751e+09 1.10075760e+09 1.10075769e+09 1.10075777e+09
 1.10075786e+09 1.10075795e+09 1.10075803e+09 1.10075812e+09
 1.10075821e+09 1.10075829e+09 1.10075838e+09 1.10075847e+09
 1.10075855e+09 1.10075864e+09 1.10075872e+09 1.10075881e+09
 1.10075890e+09 1.10075898e+09 1.10075907e+09 1.10075916e+09
 1.10075924e+09 1.10075933e+09 1.10075942e+09 1.10075950e+09
 1.10075959e+09 1.10075968e+09 1.10075976e+09 1.10075985e+09
 1.10075994e+09 1.10076002e+09 1.10076011e+09 1.10076019e+09
 1.10076028e+09 1.10076037e+09 1.10076045e+09 1.10076054e+09
 1.10076063e+09 1.10076071e+09 1.10076080e+09 1.10076089e+09
 1.10076097e+09 1.10076106e+09 1.10076115e+09 1.10076123e+09
 1.10076132e+09 1.10076141e+09 1.10076149e+09 1.10076158e+09
 1.10076167e+09 1.10076175e+09 1.10076184e+09 1.10076192e+09
 1.10076201e+09 1.10076210e+09 1.10076218e+09 1.10076227e+09
 1.10076236e+09 1.10076244e+09 1.10076253e+09 1.10076262e+09
 1.10076270e+09 1.10076279e+09 1.10076288e+09 1.10076296e+09
 1.10076305e+09 1.10076314e+09 1.10076322e+09 1.10076331e+09
 1.10076339e+09 1.10076348e+09 1.10076357e+09 1.10076365e+09
 1.10076374e+09 1.10076383e+09 1.10076391e+09 1.10076400e+09
 1.10076409e+09 1.10076417e+09 1.10076426e+09 1.10076435e+09
 1.10076443e+09 1.10076452e+09 1.10076461e+09 1.10076469e+09
 1.10076478e+09 1.10076487e+09 1.10076495e+09 1.10076504e+09
 1.10076512e+09 1.10076521e+09 1.10076530e+09 1.10076538e+09
 1.10076547e+09 1.10076556e+09 1.10076564e+09 1.10076573e+09
 1.10076582e+09 1.10076590e+09 1.10076599e+09 1.10076608e+09
 1.10076616e+09 1.10076625e+09 1.10076634e+09 1.10076642e+09
 1.10076651e+09 1.10076659e+09 1.10076668e+09 1.10076677e+09
 1.10076685e+09 1.10076694e+09 1.10076703e+09 1.10076711e+09
 1.10076720e+09 1.10076729e+09 1.10076737e+09 1.10076746e+09
 1.10076755e+09 1.10076763e+09 1.10076772e+09 1.10076781e+09
 1.10076789e+09 1.10076798e+09 1.10076807e+09 1.10076815e+09
 1.10076824e+09 1.10076832e+09 1.10076841e+09 1.10076850e+09
 1.10076858e+09 1.10076867e+09 1.10076876e+09 1.10076884e+09
 1.10076893e+09 1.10076902e+09 1.10076910e+09 1.10076919e+09
 1.10076928e+09 1.10076936e+09 1.10076945e+09 1.10076954e+09
 1.10076962e+09 1.10076971e+09 1.10076979e+09 1.10076988e+09
 1.10076997e+09 1.10077005e+09 1.10077014e+09 1.10077023e+09
 1.10077031e+09 1.10077040e+09 1.10077049e+09 1.10077057e+09
 1.10077066e+09 1.10077075e+09 1.10077083e+09 1.10077092e+09
 1.10077101e+09 1.10077109e+09 1.10077118e+09 1.10077127e+09
 1.10077135e+09 1.10077144e+09 1.10077152e+09 1.10077161e+09
 1.10077170e+09 1.10077178e+09 1.10077187e+09 1.10077196e+09
 1.10077204e+09 1.10077213e+09 1.10077222e+09 1.10077230e+09
 1.10077239e+09 1.10077248e+09 1.10077256e+09 1.10077265e+09
 1.10077274e+09 1.10077282e+09 1.10077291e+09 1.10077299e+09
 1.10077308e+09 1.10077317e+09 1.10077325e+09 1.10077334e+09
 1.10077343e+09 1.10077351e+09 1.10077360e+09 1.10077369e+09
 1.10077377e+09 1.10077386e+09 1.10077395e+09 1.10077403e+09
 1.10077412e+09 1.10077421e+09 1.10077429e+09 1.10077438e+09
 1.10077447e+09 1.10077455e+09 1.10077464e+09 1.10077472e+09
 1.10077481e+09 1.10077490e+09 1.10077498e+09 1.10077507e+09
 1.10077516e+09 1.10077524e+09 1.10077533e+09 1.10077542e+09
 1.10077550e+09 1.10077559e+09 1.10077568e+09 1.10077576e+09
 1.10077585e+09 1.10077594e+09 1.10077602e+09 1.10077611e+09
 1.10077619e+09 1.10077628e+09 1.10077637e+09 1.10077645e+09
 1.10077654e+09 1.10077663e+09 1.10077671e+09 1.10077680e+09
 1.10077689e+09 1.10077697e+09 1.10077706e+09 1.10077715e+09
 1.10077723e+09 1.10077732e+09 1.10077741e+09 1.10077749e+09
