name =JUICE_ROI_GAN_4_6_02
flyby = ['2034 SEP 28 18:48:51', '2034 SEP 29 18:48:51']
Observation TW = <SpiceCell dtype = 1, length = 0, size = 3400, card = 14, is_set = 1, adjust = 0, init = 1, base = 94073126541184, data = 94073126541232>
Res(t) = [1.47322938 1.47140424 1.4695821  1.46776295 1.4659468  1.46413366
 1.46232353 1.46051641 1.45871231 1.45691122 1.45511317 1.45331814
 1.45152614 1.44973718 1.44795126 1.44616838 1.44438856 1.44261178
 1.44083807 1.43906741 1.43729982 1.43553529 1.43377384 1.43201547
 1.43026018 1.42850797 1.42675885 1.42501283 1.4232699  1.42153008
 1.41979336 1.41805974 1.41632925 1.41460187 1.41287761 1.41115648
 1.40943847 1.4077236  1.40601187 1.40430329 1.40259785 1.40089555
 1.39919642 1.39750044 1.39580763 1.39411798 1.3924315  1.3907482
 1.38906808 1.38739114 1.38571739 1.38404683 1.38237947 1.38071531
 1.37905435 1.3773966  1.37574207 1.37409075 1.37244265 1.37079777
 1.36915613 1.36751772 1.36588254 1.36425061 1.36262192 1.36099649
 1.3593743  1.35775538 1.35613972 1.35452732 1.3529182  1.35131235
 1.34970978 1.34811049 1.34651449 1.34492178 1.34333236 1.34174625
 1.34016344 1.33858394 1.33700775 1.33543487 1.33386532 1.33229909
 1.33073619 1.32917662 1.32762039 1.3260675  1.32451795 1.32297175
 1.32142891 1.31988943 1.3183533  1.31682054 1.31529115 1.31376514
 1.3122425  1.31072324 1.30920737 1.30769489 1.3061858  1.30468011
 1.30317782 1.30167894 1.30018347 1.29869142 1.29720278 1.29571756
 1.29423577 1.29275741 1.29128248 1.289811   1.28834295 1.28687835
 1.2854172  1.28395951 1.28250511 1.28105429 1.27960693 1.27816304
 1.27672262 1.27528568 1.27385222 1.27242224 1.27099575 1.26957276
 1.26815326 1.26673726 1.26532476 1.26391577 1.26251029 1.26110833
 1.25970988 1.25831496 1.25692356 1.2555357  1.25415136 1.25277057
 1.25139331 1.2500196  1.24864944 1.24728283 1.24591978 1.24456028
 1.24320435 1.24185199 1.24050319 1.23915797 1.23781632 1.23647826
 1.23514378 1.23381289 1.23248559 1.23116189 1.22984178 1.22852527
 1.22721237 1.22590308 1.22459741 1.22329534 1.2219969  1.22070208
 1.21941088 1.21812331 1.21683938 1.21555908 1.21428242 1.21300941
 1.21174003 1.21047431 1.20921224 1.20795383 1.20669907 1.20544797
 1.20420054 1.20295678 1.20171669 1.20048027 1.19924753 1.19801847
 1.1967931  1.19557141 1.19435341 1.1931391  1.19192849 1.19072158
 1.18951837 1.18831886 1.18712306 1.18593097 1.1847426  1.18355794
 1.18237699 1.18119977 1.18002628 1.17885651 1.17769047 1.17652816
 1.17536959 1.17421476 1.17306366 1.17191631 1.17077271 1.16963285
 1.16849675 1.16736439 1.1662358  1.16511096 1.16398988 1.16287257
 1.16175902 1.16064924 1.15954323 1.158441   1.15734254 1.15624785
 1.15515695 1.15406983 1.15298649 1.15190694 1.15083117 1.1497592
 1.14869102 1.14762664 1.14656605 1.14550926 1.14445628 1.14340709
 1.14236171 1.14132014 1.14028238 1.13924843 1.13821829 1.13719196
 1.13616945 1.13515076 1.13413589 1.13312484 1.13211762 1.13111422
 1.13011464 1.1291189  1.12812698 1.1271389  1.12615464 1.12517423
 1.12419764 1.1232249  1.12225599 1.12129093 1.1203297  1.11937232
 1.11841878 1.11746909 1.11652324 1.11558124 1.11464309 1.11370879
 1.11277834 1.11185175 1.110929   1.11001011 1.10909508 1.1081839
 1.10727658 1.10637312 1.10547351 1.10457777 1.10368588 1.10279786
 1.1019137  1.1010334  1.10015697 1.0992844  1.09841569 1.09755085
 1.09668987 1.09583276 1.09497952 1.09413014 1.09328464 1.092443
 1.09160522 1.09077132 1.08994128 1.08911512 1.08829282 1.08747439
 1.08665984 1.08584915 1.08504233 1.08423938 1.0834403  1.08264509
 1.08185375 1.08106628 1.08028268 1.07950295 1.07872709 1.07795509
 1.07718697 1.07642271 1.07566232 1.0749058  1.07415314 1.07340436
 1.07265943 1.07191838 1.07118119 1.07044786 1.0697184  1.0689928
 1.06827106 1.06755318 1.06683917 1.06612901 1.06542272 1.06472028
 1.0640217  1.06332698 1.06263611 1.0619491  1.06126594 1.06058663
 1.05991118 1.05923957 1.05857181 1.0579079  1.05724784 1.05659162
 1.05593925 1.05529072 1.05464603 1.05400518 1.05336816 1.05273499
 1.05210564 1.05148013 1.05085846 1.05024061 1.04962659 1.0490164
 1.04841003 1.04780749 1.04720876 1.04661386 1.04602277 1.0454355
 1.04485204 1.04427239 1.04369655 1.04312452 1.04255629 1.04199186
 1.04143124 1.04087441 1.04032138 1.03977214 1.0392267  1.03868504
 1.03814717 1.03761308 1.03708277 1.03655625 1.03603349 1.03551452
 1.03499931 1.03448787 1.0339802  1.03347628 1.03297613 1.03247974
 1.0319871  1.03149821 1.03101306 1.03053167 1.03005401 1.0295801
 1.02910992 1.02864347 1.02818075 1.02772176 1.0272665  1.02681495
 1.02636712 1.025923   1.02548259 1.02504589 1.02461289 1.02418359
 1.02375799 1.02333608 1.02291786 1.02250332 1.02209246 1.02168529
 1.02128178 1.02088195 1.02048578 1.02009328 1.01970443 1.01931924
 1.0189377  1.01855981 1.01818556 1.01781495 1.01744797 1.01708462
 1.0167249  1.0163688  1.01601633 1.01566746 1.0153222  1.01498055
 1.0146425  1.01430805 1.01397718 1.01364991 1.01332622 1.01300611
 1.01268957 1.0123766  1.01206719 1.01176135 1.01145906 1.01116032
 1.01086512 1.01057347 1.01028536 1.01000077 1.00971972 1.00944218
 1.00916816 1.00889765 1.00863065 1.00836716 1.00810715 1.00785064
 1.00759762 1.00734808 1.00710201 1.00685942 1.00662029 1.00638462
 1.0061524  1.00592364 1.00569832 1.00547644 1.00525799 1.00504297
 1.00483138 1.0046232  1.00441843 1.00421707 1.00401911 1.00382454
 1.00363336 1.00344557 1.00326116 1.00308011 1.00290243 1.00272812
 1.00255716 1.00238954 1.00222527 1.00206434 1.00190674 1.00175246
 1.0016015  1.00145386 1.00130952 1.00116849 1.00103075 1.00089629
 1.00076512 1.00063723 1.00051261 1.00039125 1.00027315 1.00015831
 1.0000467  0.99993834 0.99983321 0.99973131 0.99963262 0.99953716
 0.99944489 0.99935583 0.99926997 0.99918729 0.99910779 0.99903147
 0.99895831 0.99888832 0.99882148 0.9987578  0.99869725 0.99863984
 0.99858556 0.99853439 0.99848635 0.99844141 0.99839958 0.99836084
 0.99832518 0.99829261 0.99826311 0.99823668 0.99821332 0.998193
 0.99817573 0.9981615  0.99815031 0.99814214 0.99813699 0.99813485
 0.99813571 0.99813958 0.99814643 0.99815627 0.99816908 0.99818486
 0.99820361 0.99822531 0.99824996 0.99827755 0.99830807 0.99834152
 0.99837789 0.99841717 0.99845936 0.99850444 0.99855241 0.99860327
 0.998657   0.9987136  0.99877306 0.99883537 0.99890053 0.99896853
 0.99903936 0.99911301 0.99918948 0.99926876 0.99935084 0.99943571
 0.99952337 0.99961381 0.99970702 0.99980299 0.99990172 1.0000032
 1.00010742 1.00021438 1.00032406 1.00043646 1.00055157 1.00066939
 1.0007899  1.0009131  1.00103898 1.00116753 1.00129875 1.00143262
 1.00156915 1.00170831 1.00185012 1.00199455 1.0021416  1.00229126
 1.00244352 1.00259838 1.00275583 1.00291586 1.00307846 1.00324363
 1.00341135 1.00358163 1.00375445 1.0039298  1.00410767 1.00428807
 1.00447098 1.00465639 1.00484429 1.00503468 1.00522755 1.0054229
 1.0056207  1.00582097 1.00602368 1.00622883 1.00643642 1.00664643
 1.00685885 1.00707369 1.00729092 1.00751055 1.00773257 1.00795696
 1.00818373 1.00841285 1.00864433 1.00887816 1.00911432 1.00935281
 1.00959363 1.00983676 1.0100822  1.01032994 1.01057997 1.01083228
 1.01108686 1.01134372 1.01160283 1.0118642  1.01212781 1.01239366
 1.01266173 1.01293202 1.01320453 1.01347924 1.01375615 1.01403525
 1.01431653 1.01459998 1.01488559 1.01517337 1.01546329 1.01575535
 1.01604955 1.01634588 1.01664432 1.01694487 1.01724753 1.01755228
 1.01785911 1.01816803 1.01847901 1.01879206 1.01910717 1.01942432
 1.01974351 1.02006474 1.02038799 1.02071325 1.02104053 1.0213698
 1.02170107 1.02203432 1.02236955 1.02270675 1.02304591 1.02338703
 1.02373009 1.0240751  1.02442203 1.02477088 1.02512166 1.02547433
 1.02582891 1.02618539 1.02654374 1.02690398 1.02726608 1.02763005
 1.02799586 1.02836353 1.02873303 1.02910437 1.02947753 1.0298525
 1.03022928 1.03060787 1.03098824 1.03137041 1.03175435 1.03214006
 1.03252753 1.03291676 1.03330773 1.03370045 1.03409489 1.03449107
 1.03488896 1.03528856 1.03568986 1.03609286 1.03649755 1.03690391
 1.03731195 1.03772165 1.03813301 1.03854603 1.03896068 1.03937697
 1.03979489 1.04021443 1.04063558 1.04105834 1.0414827  1.04190864
 1.04233618 1.04276529 1.04319597 1.04362821 1.044062   1.04449735
 1.04493423 1.04537265 1.04581259 1.04625406 1.04669703 1.04714151
 1.04758748 1.04803495 1.0484839  1.04893432 1.04938621 1.04983957
 1.05029438 1.05075063 1.05120833 1.05166746 1.05212801 1.05258999
 1.05305338 1.05351817 1.05398436 1.05445194 1.05492091 1.05539125
 1.05586296 1.05633604 1.05681047 1.05728625 1.05776338 1.05824184
 1.05872163 1.05920274 1.05968517 1.06016891 1.06065395 1.06114028
 1.0616279  1.0621168  1.06260698 1.06309843 1.06359113 1.0640851
 1.06458031 1.06507676 1.06557444 1.06607336 1.06657349 1.06707484
 1.0675774  1.06808116 1.06858612 1.06909226 1.06959959 1.07010809
 1.07061776 1.0711286  1.07164059 1.07215373 1.07266801 1.07318343
 1.07369998 1.07421766 1.07473645 1.07525635 1.07577737 1.07629947
 1.07682268 1.07734696 1.07787233 1.07839877 1.07892628 1.07945485
 1.07998448 1.08051516 1.08104688 1.08157963 1.08211342 1.08264823
 1.08318406 1.0837209  1.08425875 1.08479759 1.08533744 1.08587827
 1.08642008 1.08696287 1.08750663 1.08805135 1.08859704 1.08914367
 1.08969125 1.09023978 1.09078924 1.09133962 1.09189093 1.09244316
 1.0929963  1.09355035 1.0941053  1.09466114 1.09521787 1.09577548
 1.09633397 1.09689334 1.09745356 1.09801465 1.0985766  1.09913939
 1.09970303 1.10026751 1.10083282 1.10139896 1.10196592 1.10253369
 1.10310228 1.10367167 1.10424186 1.10481285 1.10538462 1.10595718
 1.10653052 1.10710463 1.10767951 1.10825515 1.10883155 1.1094087
 1.1099866  1.11056524 1.11114462 1.11172472 1.11230556 1.11288711
 1.11346938 1.11405236 1.11463605 1.11522043 1.11580552 1.11639129
 1.11697775 1.11756489 1.1181527  1.11874118 1.11933033 1.11992014
 1.12051061 1.12110173 1.12169349 1.12228589 1.12287893 1.1234726
 1.1240669  1.12466182 1.12525735 1.1258535  1.12645026 1.12704762
 1.12764557 1.12824412 1.12884326 1.12944299 1.13004329 1.13064417
 1.13124561 1.13184763 1.1324502  1.13305333 1.13365702 1.13426125
 1.13486603 1.13547134 1.13607719 1.13668357 1.13729047 1.13789789
 1.13850584 1.13911429 1.13972325 1.14033272 1.14094268 1.14155314
 1.1421641  1.14277554 1.14338746 1.14399986 1.14461273 1.14522607
 1.14583988 1.14645416 1.14706889 1.14768407 1.1482997  1.14891578
 1.1495323  1.15014926 1.15076665 1.15138447 1.15200271 1.15262138
 1.15324047 1.15385996 1.15447987 1.15510019 1.1557209  1.15634202
 1.15696353 1.15758543 1.15820772 1.15883039 1.15945344 1.16007686
 1.16070066 1.16132483 1.16194936 1.16257425 1.1631995  1.1638251
 1.16445106 1.16507736 1.165704   1.16633098 1.1669583  1.16758595
 1.16821393 1.16884224 1.16947087 1.17009981 1.17072908 1.17135865
 1.17198853 1.17261872 1.17324921 1.17388    1.17451108 1.17514245
 1.17577412 1.17640607 1.1770383  1.17767081 1.17830359 1.17893665
 1.17956998 1.18020357 1.18083743 1.18147155 1.18210592 1.18274055
 1.18337543 1.18401055 1.18464592 1.18528154 1.18591739 1.18655347
 1.18718979 1.18782634 1.18846312 1.18910012 1.18973734 1.19037478
 1.19101244 1.19165031 1.19228838 1.19292667 1.19356516 1.19420385
 1.19484274 1.19548182 1.1961211  1.19676057 1.19740023 1.19804007
 1.1986801  1.1993203  1.19996069 1.20060124 1.20124197 1.20188287
 1.20252394 1.20316517 1.20380657 1.20444812 1.20508983 1.2057317
 1.20637371 1.20701588 1.2076582  1.20830066 1.20894326 1.20958601
 1.21022889 1.21087191 1.21151506 1.21215834]
t = [1.09635420e+09 1.09635429e+09 1.09635437e+09 1.09635446e+09
 1.09635455e+09 1.09635463e+09 1.09635472e+09 1.09635481e+09
 1.09635489e+09 1.09635498e+09 1.09635507e+09 1.09635515e+09
 1.09635524e+09 1.09635532e+09 1.09635541e+09 1.09635550e+09
 1.09635558e+09 1.09635567e+09 1.09635576e+09 1.09635584e+09
 1.09635593e+09 1.09635602e+09 1.09635610e+09 1.09635619e+09
 1.09635628e+09 1.09635636e+09 1.09635645e+09 1.09635654e+09
 1.09635662e+09 1.09635671e+09 1.09635679e+09 1.09635688e+09
 1.09635697e+09 1.09635705e+09 1.09635714e+09 1.09635723e+09
 1.09635731e+09 1.09635740e+09 1.09635749e+09 1.09635757e+09
 1.09635766e+09 1.09635775e+09 1.09635783e+09 1.09635792e+09
 1.09635801e+09 1.09635809e+09 1.09635818e+09 1.09635827e+09
 1.09635835e+09 1.09635844e+09 1.09635852e+09 1.09635861e+09
 1.09635870e+09 1.09635878e+09 1.09635887e+09 1.09635896e+09
 1.09635904e+09 1.09635913e+09 1.09635922e+09 1.09635930e+09
 1.09635939e+09 1.09635948e+09 1.09635956e+09 1.09635965e+09
 1.09635974e+09 1.09635982e+09 1.09635991e+09 1.09635999e+09
 1.09636008e+09 1.09636017e+09 1.09636025e+09 1.09636034e+09
 1.09636043e+09 1.09636051e+09 1.09636060e+09 1.09636069e+09
 1.09636077e+09 1.09636086e+09 1.09636095e+09 1.09636103e+09
 1.09636112e+09 1.09636121e+09 1.09636129e+09 1.09636138e+09
 1.09636147e+09 1.09636155e+09 1.09636164e+09 1.09636172e+09
 1.09636181e+09 1.09636190e+09 1.09636198e+09 1.09636207e+09
 1.09636216e+09 1.09636224e+09 1.09636233e+09 1.09636242e+09
 1.09636250e+09 1.09636259e+09 1.09636268e+09 1.09636276e+09
 1.09636285e+09 1.09636294e+09 1.09636302e+09 1.09636311e+09
 1.09636319e+09 1.09636328e+09 1.09636337e+09 1.09636345e+09
 1.09636354e+09 1.09636363e+09 1.09636371e+09 1.09636380e+09
 1.09636389e+09 1.09636397e+09 1.09636406e+09 1.09636415e+09
 1.09636423e+09 1.09636432e+09 1.09636441e+09 1.09636449e+09
 1.09636458e+09 1.09636467e+09 1.09636475e+09 1.09636484e+09
 1.09636492e+09 1.09636501e+09 1.09636510e+09 1.09636518e+09
 1.09636527e+09 1.09636536e+09 1.09636544e+09 1.09636553e+09
 1.09636562e+09 1.09636570e+09 1.09636579e+09 1.09636588e+09
 1.09636596e+09 1.09636605e+09 1.09636614e+09 1.09636622e+09
 1.09636631e+09 1.09636639e+09 1.09636648e+09 1.09636657e+09
 1.09636665e+09 1.09636674e+09 1.09636683e+09 1.09636691e+09
 1.09636700e+09 1.09636709e+09 1.09636717e+09 1.09636726e+09
 1.09636735e+09 1.09636743e+09 1.09636752e+09 1.09636761e+09
 1.09636769e+09 1.09636778e+09 1.09636787e+09 1.09636795e+09
 1.09636804e+09 1.09636812e+09 1.09636821e+09 1.09636830e+09
 1.09636838e+09 1.09636847e+09 1.09636856e+09 1.09636864e+09
 1.09636873e+09 1.09636882e+09 1.09636890e+09 1.09636899e+09
 1.09636908e+09 1.09636916e+09 1.09636925e+09 1.09636934e+09
 1.09636942e+09 1.09636951e+09 1.09636959e+09 1.09636968e+09
 1.09636977e+09 1.09636985e+09 1.09636994e+09 1.09637003e+09
 1.09637011e+09 1.09637020e+09 1.09637029e+09 1.09637037e+09
 1.09637046e+09 1.09637055e+09 1.09637063e+09 1.09637072e+09
 1.09637081e+09 1.09637089e+09 1.09637098e+09 1.09637107e+09
 1.09637115e+09 1.09637124e+09 1.09637132e+09 1.09637141e+09
 1.09637150e+09 1.09637158e+09 1.09637167e+09 1.09637176e+09
 1.09637184e+09 1.09637193e+09 1.09637202e+09 1.09637210e+09
 1.09637219e+09 1.09637228e+09 1.09637236e+09 1.09637245e+09
 1.09637254e+09 1.09637262e+09 1.09637271e+09 1.09637279e+09
 1.09637288e+09 1.09637297e+09 1.09637305e+09 1.09637314e+09
 1.09637323e+09 1.09637331e+09 1.09637340e+09 1.09637349e+09
 1.09637357e+09 1.09637366e+09 1.09637375e+09 1.09637383e+09
 1.09637392e+09 1.09637401e+09 1.09637409e+09 1.09637418e+09
 1.09637427e+09 1.09637435e+09 1.09637444e+09 1.09637452e+09
 1.09637461e+09 1.09637470e+09 1.09637478e+09 1.09637487e+09
 1.09637496e+09 1.09637504e+09 1.09637513e+09 1.09637522e+09
 1.09637530e+09 1.09637539e+09 1.09637548e+09 1.09637556e+09
 1.09637565e+09 1.09637574e+09 1.09637582e+09 1.09637591e+09
 1.09637599e+09 1.09637608e+09 1.09637617e+09 1.09637625e+09
 1.09637634e+09 1.09637643e+09 1.09637651e+09 1.09637660e+09
 1.09637669e+09 1.09637677e+09 1.09637686e+09 1.09637695e+09
 1.09637703e+09 1.09637712e+09 1.09637721e+09 1.09637729e+09
 1.09637738e+09 1.09637747e+09 1.09637755e+09 1.09637764e+09
 1.09637772e+09 1.09637781e+09 1.09637790e+09 1.09637798e+09
 1.09637807e+09 1.09637816e+09 1.09637824e+09 1.09637833e+09
 1.09637842e+09 1.09637850e+09 1.09637859e+09 1.09637868e+09
 1.09637876e+09 1.09637885e+09 1.09637894e+09 1.09637902e+09
 1.09637911e+09 1.09637919e+09 1.09637928e+09 1.09637937e+09
 1.09637945e+09 1.09637954e+09 1.09637963e+09 1.09637971e+09
 1.09637980e+09 1.09637989e+09 1.09637997e+09 1.09638006e+09
 1.09638015e+09 1.09638023e+09 1.09638032e+09 1.09638041e+09
 1.09638049e+09 1.09638058e+09 1.09638067e+09 1.09638075e+09
 1.09638084e+09 1.09638092e+09 1.09638101e+09 1.09638110e+09
 1.09638118e+09 1.09638127e+09 1.09638136e+09 1.09638144e+09
 1.09638153e+09 1.09638162e+09 1.09638170e+09 1.09638179e+09
 1.09638188e+09 1.09638196e+09 1.09638205e+09 1.09638214e+09
 1.09638222e+09 1.09638231e+09 1.09638239e+09 1.09638248e+09
 1.09638257e+09 1.09638265e+09 1.09638274e+09 1.09638283e+09
 1.09638291e+09 1.09638300e+09 1.09638309e+09 1.09638317e+09
 1.09638326e+09 1.09638335e+09 1.09638343e+09 1.09638352e+09
 1.09638361e+09 1.09638369e+09 1.09638378e+09 1.09638387e+09
 1.09638395e+09 1.09638404e+09 1.09638412e+09 1.09638421e+09
 1.09638430e+09 1.09638438e+09 1.09638447e+09 1.09638456e+09
 1.09638464e+09 1.09638473e+09 1.09638482e+09 1.09638490e+09
 1.09638499e+09 1.09638508e+09 1.09638516e+09 1.09638525e+09
 1.09638534e+09 1.09638542e+09 1.09638551e+09 1.09638559e+09
 1.09638568e+09 1.09638577e+09 1.09638585e+09 1.09638594e+09
 1.09638603e+09 1.09638611e+09 1.09638620e+09 1.09638629e+09
 1.09638637e+09 1.09638646e+09 1.09638655e+09 1.09638663e+09
 1.09638672e+09 1.09638681e+09 1.09638689e+09 1.09638698e+09
 1.09638707e+09 1.09638715e+09 1.09638724e+09 1.09638732e+09
 1.09638741e+09 1.09638750e+09 1.09638758e+09 1.09638767e+09
 1.09638776e+09 1.09638784e+09 1.09638793e+09 1.09638802e+09
 1.09638810e+09 1.09638819e+09 1.09638828e+09 1.09638836e+09
 1.09638845e+09 1.09638854e+09 1.09638862e+09 1.09638871e+09
 1.09638879e+09 1.09638888e+09 1.09638897e+09 1.09638905e+09
 1.09638914e+09 1.09638923e+09 1.09638931e+09 1.09638940e+09
 1.09638949e+09 1.09638957e+09 1.09638966e+09 1.09638975e+09
 1.09638983e+09 1.09638992e+09 1.09639001e+09 1.09639009e+09
 1.09639018e+09 1.09639027e+09 1.09639035e+09 1.09639044e+09
 1.09639052e+09 1.09639061e+09 1.09639070e+09 1.09639078e+09
 1.09639087e+09 1.09639096e+09 1.09639104e+09 1.09639113e+09
 1.09639122e+09 1.09639130e+09 1.09639139e+09 1.09639148e+09
 1.09639156e+09 1.09639165e+09 1.09639174e+09 1.09639182e+09
 1.09639191e+09 1.09639199e+09 1.09639208e+09 1.09639217e+09
 1.09639225e+09 1.09639234e+09 1.09639243e+09 1.09639251e+09
 1.09639260e+09 1.09639269e+09 1.09639277e+09 1.09639286e+09
 1.09639295e+09 1.09639303e+09 1.09639312e+09 1.09639321e+09
 1.09639329e+09 1.09639338e+09 1.09639347e+09 1.09639355e+09
 1.09639364e+09 1.09639372e+09 1.09639381e+09 1.09639390e+09
 1.09639398e+09 1.09639407e+09 1.09639416e+09 1.09639424e+09
 1.09639433e+09 1.09639442e+09 1.09639450e+09 1.09639459e+09
 1.09639468e+09 1.09639476e+09 1.09639485e+09 1.09639494e+09
 1.09639502e+09 1.09639511e+09 1.09639519e+09 1.09639528e+09
 1.09639537e+09 1.09639545e+09 1.09639554e+09 1.09639563e+09
 1.09639571e+09 1.09639580e+09 1.09639589e+09 1.09639597e+09
 1.09639606e+09 1.09639615e+09 1.09639623e+09 1.09639632e+09
 1.09639641e+09 1.09639649e+09 1.09639658e+09 1.09639667e+09
 1.09639675e+09 1.09639684e+09 1.09639692e+09 1.09639701e+09
 1.09639710e+09 1.09639718e+09 1.09639727e+09 1.09639736e+09
 1.09639744e+09 1.09639753e+09 1.09639762e+09 1.09639770e+09
 1.09639779e+09 1.09639788e+09 1.09639796e+09 1.09639805e+09
 1.09639814e+09 1.09639822e+09 1.09639831e+09 1.09639839e+09
 1.09639848e+09 1.09639857e+09 1.09639865e+09 1.09639874e+09
 1.09639883e+09 1.09639891e+09 1.09639900e+09 1.09639909e+09
 1.09639917e+09 1.09639926e+09 1.09639935e+09 1.09639943e+09
 1.09639952e+09 1.09639961e+09 1.09639969e+09 1.09639978e+09
 1.09639987e+09 1.09639995e+09 1.09640004e+09 1.09640012e+09
 1.09640021e+09 1.09640030e+09 1.09640038e+09 1.09640047e+09
 1.09640056e+09 1.09640064e+09 1.09640073e+09 1.09640082e+09
 1.09640090e+09 1.09640099e+09 1.09640108e+09 1.09640116e+09
 1.09640125e+09 1.09640134e+09 1.09640142e+09 1.09640151e+09
 1.09640159e+09 1.09640168e+09 1.09640177e+09 1.09640185e+09
 1.09640194e+09 1.09640203e+09 1.09640211e+09 1.09640220e+09
 1.09640229e+09 1.09640237e+09 1.09640246e+09 1.09640255e+09
