name =JUICE_ROI_GAN_4_4_07
flyby = ['2034 SEP 07 06:03:51', '2034 SEP 08 06:03:51']
Observation TW = <SpiceCell dtype = 1, length = 0, size = 2800, card = 8, is_set = 1, adjust = 0, init = 1, base = 93999615625088, data = 93999615625136>
Res(t) = [2.16277788 2.16280051 2.1628232  2.16284595 2.16286876 2.16289163
 2.16291455 2.16293753 2.16296058 2.16298367 2.16300683 2.16303005
 2.16305332 2.16307665 2.16310004 2.16312349 2.16314699 2.16317056
 2.16319418 2.16321786 2.1632416  2.16326539 2.16328925 2.16331316
 2.16333713 2.16336116 2.16338524 2.16340939 2.16343359 2.16345785
 2.16348216 2.16350654 2.16353097 2.16355546 2.16358001 2.16360462
 2.16362928 2.16365401 2.16367878 2.16370362 2.16372852 2.16375347
 2.16377848 2.16380355 2.16382867 2.16385386 2.1638791  2.1639044
 2.16392975 2.16395517 2.16398064 2.16400617 2.16403175 2.1640574
 2.1640831  2.16410885 2.16413467 2.16416054 2.16418647 2.16421246
 2.16423851 2.16426461 2.16429078 2.16431699 2.16434327 2.1643696
 2.16439599 2.16442244 2.16444894 2.1644755  2.16450212 2.1645288
 2.16455553 2.16458232 2.16460917 2.16463607 2.16466304 2.16469005
 2.16471713 2.16474426 2.16477146 2.1647987  2.16482601 2.16485337
 2.16488079 2.16490826 2.1649358  2.16496339 2.16499103 2.16501874
 2.1650465  2.16507432 2.16510219 2.16513012 2.16515811 2.16518616
 2.16521426 2.16524242 2.16527063 2.1652989  2.16532723 2.16535562
 2.16538406 2.16541256 2.16544112 2.16546973 2.1654984  2.16552713
 2.16555591 2.16558475 2.16561365 2.1656426  2.16567161 2.16570068
 2.1657298  2.16575898 2.16578821 2.16581751 2.16584686 2.16587626
 2.16590573 2.16593524 2.16596482 2.16599445 2.16602414 2.16605388
 2.16608368 2.16611354 2.16614346 2.16617342 2.16620345 2.16623353
 2.16626367 2.16629387 2.16632412 2.16635443 2.16638479 2.16641521
 2.16644569 2.16647622 2.16650681 2.16653746 2.16656816 2.16659892
 2.16662973 2.1666606  2.16669153 2.16672251 2.16675355 2.16678464
 2.16681579 2.166847   2.16687826 2.16690958 2.16694096 2.16697239
 2.16700387 2.16703542 2.16706702 2.16709867 2.16713038 2.16716215
 2.16719397 2.16722585 2.16725778 2.16728977 2.16732182 2.16735392
 2.16738608 2.16741829 2.16745056 2.16748289 2.16751527 2.1675477
 2.1675802  2.16761274 2.16764535 2.167678   2.16771072 2.16774349
 2.16777632 2.1678092  2.16784214 2.16787513 2.16790818 2.16794128
 2.16797444 2.16800766 2.16804093 2.16807426 2.16810764 2.16814108
 2.16817457 2.16820812 2.16824172 2.16827538 2.1683091  2.16834287
 2.16837669 2.16841057 2.16844451 2.1684785  2.16851255 2.16854666
 2.16858081 2.16861503 2.1686493  2.16868362 2.168718   2.16875243
 2.16878692 2.16882146 2.16885607 2.16889072 2.16892543 2.1689602
 2.16899502 2.1690299  2.16906483 2.16909981 2.16913486 2.16916995
 2.1692051  2.16924031 2.16927557 2.16931089 2.16934626 2.16938169
 2.16941717 2.16945271 2.1694883  2.16952395 2.16955965 2.1695954
 2.16963121 2.16966708 2.169703   2.16973898 2.16977501 2.1698111
 2.16984724 2.16988343 2.16991968 2.16995599 2.16999235 2.17002877
 2.17006524 2.17010176 2.17013834 2.17017497 2.17021166 2.17024841
 2.1702852  2.17032206 2.17035896 2.17039593 2.17043294 2.17047001
 2.17050714 2.17054432 2.17058156 2.17061885 2.17065619 2.17069359
 2.17073104 2.17076855 2.17080611 2.17084373 2.1708814  2.17091913
 2.17095691 2.17099474 2.17103263 2.17107058 2.17110857 2.17114663
 2.17118473 2.1712229  2.17126111 2.17129938 2.17133771 2.17137608
 2.17141452 2.17145301 2.17149155 2.17153014 2.17156879 2.1716075
 2.17164626 2.17168507 2.17172394 2.17176286 2.17180183 2.17184086
 2.17187995 2.17191909 2.17195828 2.17199752 2.17203682 2.17207618
 2.17211559 2.17215505 2.17219457 2.17223414 2.17227376 2.17231344
 2.17235317 2.17239296 2.1724328  2.17247269 2.17251264 2.17255265
 2.1725927  2.17263281 2.17267298 2.1727132  2.17275347 2.17279379
 2.17283417 2.17287461 2.17291509 2.17295564 2.17299623 2.17303688
 2.17307759 2.17311834 2.17315915 2.17320001 2.17324093 2.1732819
 2.17332293 2.17336401 2.17340514 2.17344633 2.17348757 2.17352886
 2.17357021 2.17361161 2.17365307 2.17369457 2.17373614 2.17377775
 2.17381942 2.17386115 2.17390292 2.17394475 2.17398663 2.17402857
 2.17407056 2.1741126  2.1741547  2.17419685 2.17423905 2.17428131
 2.17432362 2.17436599 2.1744084  2.17445087 2.1744934  2.17453598
 2.17457861 2.1746213  2.17466403 2.17470682 2.17474967 2.17479257
 2.17483552 2.17487852 2.17492158 2.17496469 2.17500786 2.17505107
 2.17509434 2.17513767 2.17518104 2.17522447 2.17526796 2.17531149
 2.17535509 2.17539873 2.17544242 2.17548617 2.17552997 2.17557383
 2.17561774 2.1756617  2.17570571 2.17574978 2.1757939  2.17583808
 2.1758823  2.17592658 2.17597091 2.1760153  2.17605974 2.17610423
 2.17614877 2.17619337 2.17623802 2.17628272 2.17632748 2.17637229
 2.17641715 2.17646207 2.17650703 2.17655205 2.17659713 2.17664226
 2.17668743 2.17673266 2.17677795 2.17682329 2.17686868 2.17691412
 2.17695961 2.17700516 2.17705076 2.17709642 2.17714212 2.17718788
 2.17723369 2.17727956 2.17732547 2.17737145 2.17741747 2.17746354
 2.17750967 2.17755585 2.17760208 2.17764837 2.1776947  2.1777411
 2.17778754 2.17783403 2.17788058 2.17792718 2.17797383 2.17802054
 2.1780673  2.17811411 2.17816097 2.17820789 2.17825485 2.17830187
 2.17834895 2.17839607 2.17844325 2.17849048 2.17853776 2.17858509
 2.17863248 2.17867992 2.17872741 2.17877495 2.17882255 2.1788702
 2.1789179  2.17896565 2.17901345 2.17906131 2.17910922 2.17915718
 2.1792052  2.17925326 2.17930138 2.17934955 2.17939777 2.17944605
 2.17949437 2.17954276 2.17959119 2.17963967 2.1796882  2.17973679
 2.17978543 2.17983412 2.17988287 2.17993166 2.17998051 2.18002941
 2.18007836 2.18012736 2.18017642 2.18022553 2.18027469 2.1803239
 2.18037317 2.18042248 2.18047185 2.18052127 2.18057074 2.18062026
 2.18066984 2.18071946 2.18076914 2.18081888 2.18086865 2.18091849
 2.18096838 2.18101831 2.18106831 2.18111835 2.18116844 2.18121859
 2.18126878 2.18131903 2.18136933 2.18141968 2.18147009 2.18152054
 2.18157105 2.18162161 2.18167222 2.18172288 2.1817736  2.18182436
 2.18187518 2.18192605 2.18197697 2.18202794 2.18207897 2.18213004
 2.18218117 2.18223235 2.18228358 2.18233486 2.18238619 2.18243758
 2.18248902 2.1825405  2.18259205 2.18264364 2.18269528 2.18274697
 2.18279872 2.18285052 2.18290236 2.18295426 2.18300621 2.18305822
 2.18311027 2.18316237 2.18321453 2.18326674 2.183319   2.18337131
 2.18342367 2.18347609 2.18352855 2.18358107 2.18363363 2.18368625
 2.18373892 2.18379164 2.18384442 2.18389724 2.18395011 2.18400304
 2.18405602 2.18410905 2.18416213 2.18421526 2.18426844 2.18432168
 2.18437496 2.18442829 2.18448168 2.18453512 2.18458861 2.18464215
 2.18469574 2.18474938 2.18480308 2.18485682 2.18491062 2.18496446
 2.18501836 2.18507231 2.18512631 2.18518036 2.18523446 2.18528862
 2.18534282 2.18539707 2.18545138 2.18550574 2.18556015 2.18561461
 2.18566912 2.18572368 2.18577829 2.18583295 2.18588766 2.18594243
 2.18599724 2.18605211 2.18610703 2.18616199 2.18621701 2.18627208
 2.1863272  2.18638237 2.1864376  2.18649287 2.18654819 2.18660357
 2.18665899 2.18671447 2.18676999 2.18682557 2.1868812  2.18693688
 2.18699261 2.18704839 2.18710422 2.1871601  2.18721603 2.18727201
 2.18732805 2.18738413 2.18744027 2.18749645 2.18755269 2.18760897
 2.18766531 2.1877217  2.18777814 2.18783463 2.18789117 2.18794775
 2.1880044  2.18806109 2.18811783 2.18817462 2.18823146 2.18828836
 2.1883453  2.1884023  2.18845934 2.18851643 2.18857358 2.18863078
 2.18868802 2.18874532 2.18880267 2.18886006 2.18891751 2.18897501
 2.18903256 2.18909016 2.18914781 2.18920551 2.18926326 2.18932106
 2.18937891 2.18943681 2.18949476 2.18955277 2.18961082 2.18966892
 2.18972707 2.18978528 2.18984353 2.18990183 2.18996019 2.19001859
 2.19007705 2.19013555 2.1901941  2.19025271 2.19031137 2.19037007
 2.19042882 2.19048763 2.19054648 2.19060539 2.19066435 2.19072335
 2.19078241 2.19084152 2.19090067 2.19095988 2.19101913 2.19107844
 2.1911378  2.1911972  2.19125666 2.19131617 2.19137572 2.19143533
 2.19149499 2.1915547  2.19161445 2.19167426 2.19173411 2.19179402
 2.19185398 2.19191399 2.19197404 2.19203415 2.19209431 2.19215451
 2.19221477 2.19227508 2.19233543 2.19239584 2.19245629 2.1925168
 2.19257736 2.19263796 2.19269862 2.19275932 2.19282008 2.19288088
 2.19294174 2.19300264 2.19306359 2.1931246  2.19318565 2.19324676
 2.19330791 2.19336911 2.19343036 2.19349167 2.19355302 2.19361442
 2.19367587 2.19373738 2.19379893 2.19386053 2.19392218 2.19398388
 2.19404563 2.19410743 2.19416928 2.19423118 2.19429313 2.19435512
 2.19441717 2.19447927 2.19454142 2.19460361 2.19466586 2.19472816
 2.1947905  2.19485289 2.19491534 2.19497783 2.19504038 2.19510297
 2.19516561 2.1952283  2.19529104 2.19535383 2.19541668 2.19547957
 2.1955425  2.19560549 2.19566853 2.19573162 2.19579476 2.19585794
 2.19592118 2.19598446 2.1960478  2.19611118 2.19617462 2.1962381
 2.19630163 2.19636521 2.19642885 2.19649252 2.19655625 2.19662003
 2.19668386 2.19674774 2.19681167 2.19687564 2.19693967 2.19700374
 2.19706787 2.19713204 2.19719626 2.19726054 2.19732486 2.19738923
 2.19745365 2.19751812 2.19758264 2.1976472  2.19771182 2.19777649
 2.1978412  2.19790597 2.19797078 2.19803564 2.19810055 2.19816551
 2.19823052 2.19829558 2.19836069 2.19842585 2.19849105 2.19855631
 2.19862161 2.19868697 2.19875237 2.19881782 2.19888332 2.19894887
 2.19901447 2.19908012 2.19914582 2.19921156 2.19927736 2.1993432
 2.1994091  2.19947503 2.19954103 2.19960707 2.19967316 2.1997393
 2.19980548 2.19987172 2.199938   2.20000434 2.20007072 2.20013715
 2.20020363 2.20027016 2.20033674 2.20040337 2.20047004 2.20053677
 2.20060354 2.20067037 2.20073724 2.20080416 2.20087113 2.20093815
 2.20100521 2.20107233 2.20113949 2.20120671 2.20127397 2.20134128
 2.20140864 2.20147605 2.20154351 2.20161101 2.20167857 2.20174617
 2.20181383 2.20188152 2.20194928 2.20201707 2.20208492 2.20215282
 2.20222076 2.20228876 2.2023568  2.20242489 2.20249303 2.20256122
 2.20262945 2.20269774 2.20276607 2.20283446 2.20290289 2.20297137
 2.2030399  2.20310847 2.2031771  2.20324577 2.2033145  2.20338327
 2.20345209 2.20352096 2.20358988 2.20365884 2.20372786 2.20379692
 2.20386603 2.20393519 2.2040044  2.20407365 2.20414296 2.20421231
 2.20428172 2.20435117 2.20442067 2.20449022 2.20455981 2.20462946
 2.20469915 2.20476889 2.20483868 2.20490852 2.20497841 2.20504834
 2.20511833 2.20518836 2.20525844 2.20532857 2.20539875 2.20546897
 2.20553925 2.20560957 2.20567994 2.20575036 2.20582083 2.20589134
 2.20596191 2.20603252 2.20610318 2.20617389 2.20624465 2.20631545
 2.20638631 2.20645721 2.20652816 2.20659916 2.20667021 2.2067413
 2.20681245 2.20688364 2.20695488 2.20702617 2.2070975  2.20716889
 2.20724032 2.2073118  2.20738333 2.20745491 2.20752654 2.20759821
 2.20766993 2.2077417  2.20781352 2.20788539 2.2079573  2.20802926
 2.20810128 2.20817333 2.20824544 2.2083176  2.2083898  2.20846205
 2.20853435 2.2086067  2.2086791  2.20875154 2.20882403 2.20889657
 2.20896916 2.2090418  2.20911448 2.20918721 2.20925999 2.20933282
 2.2094057  2.20947862 2.2095516  2.20962462 2.20969768 2.2097708
 2.20984397 2.20991718 2.20999044 2.21006375 2.2101371  2.21021051
 2.21028396 2.21035746 2.21043101 2.2105046  2.21057825 2.21065194
 2.21072568 2.21079947 2.2108733  2.21094719 2.21102112 2.21109509
 2.21116912 2.2112432  2.21131732 2.21139149 2.21146571 2.21153998
 2.21161429 2.21168865 2.21176306 2.21183752 2.21191202 2.21198658
 2.21206118 2.21213583 2.21221052 2.21228527]
t = [1.09456545e+09 1.09456546e+09 1.09456546e+09 1.09456547e+09
 1.09456548e+09 1.09456548e+09 1.09456549e+09 1.09456549e+09
 1.09456550e+09 1.09456551e+09 1.09456551e+09 1.09456552e+09
 1.09456553e+09 1.09456553e+09 1.09456554e+09 1.09456554e+09
 1.09456555e+09 1.09456556e+09 1.09456556e+09 1.09456557e+09
 1.09456558e+09 1.09456558e+09 1.09456559e+09 1.09456560e+09
 1.09456560e+09 1.09456561e+09 1.09456561e+09 1.09456562e+09
 1.09456563e+09 1.09456563e+09 1.09456564e+09 1.09456565e+09
 1.09456565e+09 1.09456566e+09 1.09456566e+09 1.09456567e+09
 1.09456568e+09 1.09456568e+09 1.09456569e+09 1.09456570e+09
 1.09456570e+09 1.09456571e+09 1.09456572e+09 1.09456572e+09
 1.09456573e+09 1.09456573e+09 1.09456574e+09 1.09456575e+09
 1.09456575e+09 1.09456576e+09 1.09456577e+09 1.09456577e+09
 1.09456578e+09 1.09456578e+09 1.09456579e+09 1.09456580e+09
 1.09456580e+09 1.09456581e+09 1.09456582e+09 1.09456582e+09
 1.09456583e+09 1.09456583e+09 1.09456584e+09 1.09456585e+09
 1.09456585e+09 1.09456586e+09 1.09456587e+09 1.09456587e+09
 1.09456588e+09 1.09456589e+09 1.09456589e+09 1.09456590e+09
 1.09456590e+09 1.09456591e+09 1.09456592e+09 1.09456592e+09
 1.09456593e+09 1.09456594e+09 1.09456594e+09 1.09456595e+09
 1.09456595e+09 1.09456596e+09 1.09456597e+09 1.09456597e+09
 1.09456598e+09 1.09456599e+09 1.09456599e+09 1.09456600e+09
 1.09456601e+09 1.09456601e+09 1.09456602e+09 1.09456602e+09
 1.09456603e+09 1.09456604e+09 1.09456604e+09 1.09456605e+09
 1.09456606e+09 1.09456606e+09 1.09456607e+09 1.09456607e+09
 1.09456608e+09 1.09456609e+09 1.09456609e+09 1.09456610e+09
 1.09456611e+09 1.09456611e+09 1.09456612e+09 1.09456612e+09
 1.09456613e+09 1.09456614e+09 1.09456614e+09 1.09456615e+09
 1.09456616e+09 1.09456616e+09 1.09456617e+09 1.09456618e+09
 1.09456618e+09 1.09456619e+09 1.09456619e+09 1.09456620e+09
 1.09456621e+09 1.09456621e+09 1.09456622e+09 1.09456623e+09
 1.09456623e+09 1.09456624e+09 1.09456624e+09 1.09456625e+09
 1.09456626e+09 1.09456626e+09 1.09456627e+09 1.09456628e+09
 1.09456628e+09 1.09456629e+09 1.09456630e+09 1.09456630e+09
 1.09456631e+09 1.09456631e+09 1.09456632e+09 1.09456633e+09
 1.09456633e+09 1.09456634e+09 1.09456635e+09 1.09456635e+09
 1.09456636e+09 1.09456636e+09 1.09456637e+09 1.09456638e+09
 1.09456638e+09 1.09456639e+09 1.09456640e+09 1.09456640e+09
 1.09456641e+09 1.09456642e+09 1.09456642e+09 1.09456643e+09
 1.09456643e+09 1.09456644e+09 1.09456645e+09 1.09456645e+09
 1.09456646e+09 1.09456647e+09 1.09456647e+09 1.09456648e+09
 1.09456648e+09 1.09456649e+09 1.09456650e+09 1.09456650e+09
 1.09456651e+09 1.09456652e+09 1.09456652e+09 1.09456653e+09
 1.09456653e+09 1.09456654e+09 1.09456655e+09 1.09456655e+09
 1.09456656e+09 1.09456657e+09 1.09456657e+09 1.09456658e+09
 1.09456659e+09 1.09456659e+09 1.09456660e+09 1.09456660e+09
 1.09456661e+09 1.09456662e+09 1.09456662e+09 1.09456663e+09
 1.09456664e+09 1.09456664e+09 1.09456665e+09 1.09456665e+09
 1.09456666e+09 1.09456667e+09 1.09456667e+09 1.09456668e+09
 1.09456669e+09 1.09456669e+09 1.09456670e+09 1.09456671e+09
 1.09456671e+09 1.09456672e+09 1.09456672e+09 1.09456673e+09
 1.09456674e+09 1.09456674e+09 1.09456675e+09 1.09456676e+09
 1.09456676e+09 1.09456677e+09 1.09456677e+09 1.09456678e+09
 1.09456679e+09 1.09456679e+09 1.09456680e+09 1.09456681e+09
 1.09456681e+09 1.09456682e+09 1.09456682e+09 1.09456683e+09
 1.09456684e+09 1.09456684e+09 1.09456685e+09 1.09456686e+09
 1.09456686e+09 1.09456687e+09 1.09456688e+09 1.09456688e+09
 1.09456689e+09 1.09456689e+09 1.09456690e+09 1.09456691e+09
 1.09456691e+09 1.09456692e+09 1.09456693e+09 1.09456693e+09
 1.09456694e+09 1.09456694e+09 1.09456695e+09 1.09456696e+09
 1.09456696e+09 1.09456697e+09 1.09456698e+09 1.09456698e+09
 1.09456699e+09 1.09456700e+09 1.09456700e+09 1.09456701e+09
 1.09456701e+09 1.09456702e+09 1.09456703e+09 1.09456703e+09
 1.09456704e+09 1.09456705e+09 1.09456705e+09 1.09456706e+09
 1.09456706e+09 1.09456707e+09 1.09456708e+09 1.09456708e+09
 1.09456709e+09 1.09456710e+09 1.09456710e+09 1.09456711e+09
 1.09456712e+09 1.09456712e+09 1.09456713e+09 1.09456713e+09
 1.09456714e+09 1.09456715e+09 1.09456715e+09 1.09456716e+09
 1.09456717e+09 1.09456717e+09 1.09456718e+09 1.09456718e+09
 1.09456719e+09 1.09456720e+09 1.09456720e+09 1.09456721e+09
 1.09456722e+09 1.09456722e+09 1.09456723e+09 1.09456723e+09
 1.09456724e+09 1.09456725e+09 1.09456725e+09 1.09456726e+09
 1.09456727e+09 1.09456727e+09 1.09456728e+09 1.09456729e+09
 1.09456729e+09 1.09456730e+09 1.09456730e+09 1.09456731e+09
 1.09456732e+09 1.09456732e+09 1.09456733e+09 1.09456734e+09
 1.09456734e+09 1.09456735e+09 1.09456735e+09 1.09456736e+09
 1.09456737e+09 1.09456737e+09 1.09456738e+09 1.09456739e+09
 1.09456739e+09 1.09456740e+09 1.09456741e+09 1.09456741e+09
 1.09456742e+09 1.09456742e+09 1.09456743e+09 1.09456744e+09
 1.09456744e+09 1.09456745e+09 1.09456746e+09 1.09456746e+09
 1.09456747e+09 1.09456747e+09 1.09456748e+09 1.09456749e+09
 1.09456749e+09 1.09456750e+09 1.09456751e+09 1.09456751e+09
 1.09456752e+09 1.09456752e+09 1.09456753e+09 1.09456754e+09
 1.09456754e+09 1.09456755e+09 1.09456756e+09 1.09456756e+09
 1.09456757e+09 1.09456758e+09 1.09456758e+09 1.09456759e+09
 1.09456759e+09 1.09456760e+09 1.09456761e+09 1.09456761e+09
 1.09456762e+09 1.09456763e+09 1.09456763e+09 1.09456764e+09
 1.09456764e+09 1.09456765e+09 1.09456766e+09 1.09456766e+09
 1.09456767e+09 1.09456768e+09 1.09456768e+09 1.09456769e+09
 1.09456770e+09 1.09456770e+09 1.09456771e+09 1.09456771e+09
 1.09456772e+09 1.09456773e+09 1.09456773e+09 1.09456774e+09
 1.09456775e+09 1.09456775e+09 1.09456776e+09 1.09456776e+09
 1.09456777e+09 1.09456778e+09 1.09456778e+09 1.09456779e+09
 1.09456780e+09 1.09456780e+09 1.09456781e+09 1.09456782e+09
 1.09456782e+09 1.09456783e+09 1.09456783e+09 1.09456784e+09
 1.09456785e+09 1.09456785e+09 1.09456786e+09 1.09456787e+09
 1.09456787e+09 1.09456788e+09 1.09456788e+09 1.09456789e+09
 1.09456790e+09 1.09456790e+09 1.09456791e+09 1.09456792e+09
 1.09456792e+09 1.09456793e+09 1.09456793e+09 1.09456794e+09
 1.09456795e+09 1.09456795e+09 1.09456796e+09 1.09456797e+09
 1.09456797e+09 1.09456798e+09 1.09456799e+09 1.09456799e+09
 1.09456800e+09 1.09456800e+09 1.09456801e+09 1.09456802e+09
 1.09456802e+09 1.09456803e+09 1.09456804e+09 1.09456804e+09
 1.09456805e+09 1.09456805e+09 1.09456806e+09 1.09456807e+09
 1.09456807e+09 1.09456808e+09 1.09456809e+09 1.09456809e+09
 1.09456810e+09 1.09456811e+09 1.09456811e+09 1.09456812e+09
 1.09456812e+09 1.09456813e+09 1.09456814e+09 1.09456814e+09
 1.09456815e+09 1.09456816e+09 1.09456816e+09 1.09456817e+09
 1.09456817e+09 1.09456818e+09 1.09456819e+09 1.09456819e+09
 1.09456820e+09 1.09456821e+09 1.09456821e+09 1.09456822e+09
 1.09456822e+09 1.09456823e+09 1.09456824e+09 1.09456824e+09
 1.09456825e+09 1.09456826e+09 1.09456826e+09 1.09456827e+09
 1.09456828e+09 1.09456828e+09 1.09456829e+09 1.09456829e+09
 1.09456830e+09 1.09456831e+09 1.09456831e+09 1.09456832e+09
 1.09456833e+09 1.09456833e+09 1.09456834e+09 1.09456834e+09
 1.09456835e+09 1.09456836e+09 1.09456836e+09 1.09456837e+09
 1.09456838e+09 1.09456838e+09 1.09456839e+09 1.09456840e+09
 1.09456840e+09 1.09456841e+09 1.09456841e+09 1.09456842e+09
 1.09456843e+09 1.09456843e+09 1.09456844e+09 1.09456845e+09
 1.09456845e+09 1.09456846e+09 1.09456846e+09 1.09456847e+09
 1.09456848e+09 1.09456848e+09 1.09456849e+09 1.09456850e+09
 1.09456850e+09 1.09456851e+09 1.09456852e+09 1.09456852e+09
 1.09456853e+09 1.09456853e+09 1.09456854e+09 1.09456855e+09
 1.09456855e+09 1.09456856e+09 1.09456857e+09 1.09456857e+09
 1.09456858e+09 1.09456858e+09 1.09456859e+09 1.09456860e+09
 1.09456860e+09 1.09456861e+09 1.09456862e+09 1.09456862e+09
 1.09456863e+09 1.09456863e+09 1.09456864e+09 1.09456865e+09
 1.09456865e+09 1.09456866e+09 1.09456867e+09 1.09456867e+09
 1.09456868e+09 1.09456869e+09 1.09456869e+09 1.09456870e+09
 1.09456870e+09 1.09456871e+09 1.09456872e+09 1.09456872e+09
 1.09456873e+09 1.09456874e+09 1.09456874e+09 1.09456875e+09
 1.09456875e+09 1.09456876e+09 1.09456877e+09 1.09456877e+09
 1.09456878e+09 1.09456879e+09 1.09456879e+09 1.09456880e+09
 1.09456881e+09 1.09456881e+09 1.09456882e+09 1.09456882e+09
 1.09456883e+09 1.09456884e+09 1.09456884e+09 1.09456885e+09
 1.09456886e+09 1.09456886e+09 1.09456887e+09 1.09456887e+09
 1.09456888e+09 1.09456889e+09 1.09456889e+09 1.09456890e+09
 1.09456891e+09 1.09456891e+09 1.09456892e+09 1.09456892e+09
 1.09456893e+09 1.09456894e+09 1.09456894e+09 1.09456895e+09
 1.09456896e+09 1.09456896e+09 1.09456897e+09 1.09456898e+09
