name =JUICE_ROI_GAN_4_1_02
flyby = ['2033 NOV 26 18:22:11', '2033 NOV 27 18:22:11']
Observation TW = <SpiceCell dtype = 1, length = 0, size = 2400, card = 4, is_set = 1, adjust = 0, init = 1, base = 94298074663600, data = 94298074663648>
Res(t) = [0.45609343 0.45684083 0.45763334 0.45846889 0.45934559 0.46026159
 0.4612152  0.46220479 0.46322882 0.46428584 0.46537448 0.46649344
 0.46764148 0.46881743 0.47002018 0.47124868 0.47250191 0.47377893
 0.47507882 0.47640072 0.47774381 0.47910731 0.48049045 0.48189254
 0.48331289 0.48475084 0.48620578 0.48767711 0.48916425 0.49066668
 0.49218386 0.4937153  0.49526051 0.49681905 0.49839046 0.49997433
 0.50157026 0.50317785 0.50479674 0.50642655 0.50806696 0.50971762
 0.51137822 0.51304845 0.51472801 0.51641663 0.51811402 0.51981992
 0.52153409 0.52325626 0.52498621 0.52672371 0.52846853 0.53022047
 0.53197932 0.53374488 0.53551695 0.53729536 0.53907992 0.54087046
 0.54266681 0.54446881 0.54627631 0.54808914 0.54990717 0.55173025
 0.55355825 0.55539102 0.55722845 0.5590704  0.56091675 0.56276739
 0.5646222  0.56648107 0.56834389 0.57021055 0.57208096 0.57395502
 0.57583263 0.57771369 0.57959812 0.58148583 0.58337674 0.58527075
 0.58716779 0.58906779 0.59097066 0.59287633 0.59478473 0.59669579
 0.59860944 0.60052561 0.60244424 0.60436527 0.60628863 0.60821426
 0.61014211 0.61207212 0.61400423 0.61593839 0.61787455 0.61981265
 0.62175265 0.6236945  0.62563815 0.62758355 0.62953066 0.63147944
 0.63342983 0.63538181 0.63733532 0.63929033 0.6412468  0.6432047
 0.64516397 0.6471246  0.64908654 0.65104975 0.65301421 0.65497988
 0.65694673 0.65891473 0.66088385 0.66285405 0.66482531 0.66679759
 0.66877088 0.67074514 0.67272035 0.67469647 0.6766735  0.67865139
 0.68063012 0.68260968 0.68459003 0.68657116 0.68855304 0.69053565
 0.69251897 0.69450297 0.69648764 0.69847296 0.70045891 0.70244546
 0.70443261 0.70642032 0.70840859 0.71039739 0.7123867  0.71437652
 0.71636683 0.71835759 0.72034882 0.72234047 0.72433255 0.72632503
 0.72831791 0.73031116 0.73230477 0.73429874 0.73629304 0.73828766
 0.74028259 0.74227781 0.74427332 0.74626911 0.74826515 0.75026144
 0.75225797 0.75425472 0.75625169 0.75824886 0.76024623 0.76224377
 0.76424149 0.76623938 0.76823741 0.77023559 0.77223391 0.77423235
 0.7762309  0.77822957 0.78022833 0.78222718 0.78422611 0.78622512
 0.78822419 0.79022332 0.7922225  0.79422172 0.79622098 0.79822026
 0.80021957 0.80221889 0.80421821 0.80621754 0.80821686 0.81021617
 0.81221546 0.81421472 0.81621395 0.81821315 0.8202123  0.82221141
 0.82421045 0.82620944 0.82820837 0.83020722 0.832206   0.8342047
 0.83620331 0.83820184 0.84020026 0.84219859 0.84419681 0.84619493
 0.84819293 0.85019081 0.85218857 0.8541862  0.85618371 0.85818108
 0.86017831 0.8621754  0.86417235 0.86616915 0.86816579 0.87016228
 0.8721586  0.87415477 0.87615077 0.87814659 0.88014225 0.88213773
 0.88413303 0.88612815 0.88812308 0.89011783 0.89211239 0.89410675
 0.89610092 0.89809489 0.90008866 0.90208222 0.90407558 0.90606873
 0.90806167 0.91005439 0.91204691 0.9140392  0.91603127 0.91802313
 0.92001476 0.92200616 0.92399734 0.92598828 0.927979   0.92996948
 0.93195973 0.93394974 0.93593952 0.93792905 0.93991834 0.94190739
 0.94389619 0.94588475 0.94787306 0.94986112 0.95184893 0.95383649
 0.9558238  0.95781085 0.95979765 0.96178419 0.96377047 0.9657565
 0.96774226 0.96972776 0.971713   0.97369798 0.9756827  0.97766715
 0.97965133 0.98163525 0.98361889 0.98560228 0.98758539 0.98956823
 0.9915508  0.9935331  0.99551513 0.99749688 0.99947836 1.00145957
 1.0034405  1.00542116 1.00740154 1.00938165 1.01136148 1.01334103
 1.01532031 1.0172993  1.01927802 1.02125646 1.02323462 1.0252125
 1.02719011 1.02916743 1.03114447 1.03312123 1.03509771 1.03707391
 1.03904983 1.04102547 1.04300082 1.0449759  1.04695069 1.0489252
 1.05089943 1.05287337 1.05484704 1.05682042 1.05879352 1.06076634
 1.06273888 1.06471113 1.0666831  1.06865479 1.0706262  1.07259733
 1.07456817 1.07653874 1.07850902 1.08047902 1.08244874 1.08441818
 1.08638734 1.08835622 1.09032482 1.09229313 1.09426117 1.09622893
 1.09819641 1.10016361 1.10213053 1.10409718 1.10606354 1.10802963
 1.10999544 1.11196097 1.11392623 1.11589121 1.11785592 1.11982035
 1.1217845  1.12374838 1.12571199 1.12767532 1.12963838 1.13160116
 1.13356368 1.13552592 1.13748789 1.13944959 1.14141102 1.14337218
 1.14533307 1.14729369 1.14925404 1.15121413 1.15317395 1.1551335
 1.15709278 1.15905181 1.16101056 1.16296905 1.16492728 1.16688525
 1.16884295 1.17080039 1.17275757 1.17471449 1.17667115 1.17862755
 1.18058369 1.18253958 1.18449521 1.18645058 1.18840569 1.19036056
 1.19231516 1.19426952 1.19622362 1.19817747 1.20013106 1.20208441
 1.20403751 1.20599036 1.20794296 1.20989531 1.21184742 1.21379928
 1.21575089 1.21770226 1.21965339 1.22160427 1.22355492 1.22550532
 1.22745548 1.2294054  1.23135509 1.23330453 1.23525374 1.23720271
 1.23915145 1.24109995 1.24304822 1.24499626 1.24694407 1.24889164
 1.25083898 1.2527861  1.25473299 1.25667965 1.25862608 1.26057229
 1.26251827 1.26446403 1.26640957 1.26835488 1.27029998 1.27224485
 1.2741895  1.27613394 1.27807816 1.28002216 1.28196595 1.28390953
 1.28585289 1.28779603 1.28973897 1.29168169 1.29362421 1.29556652
 1.29750862 1.29945051 1.3013922  1.30333368 1.30527496 1.30721603
 1.30915691 1.31109758 1.31303806 1.31497833 1.31691841 1.31885829
 1.32079798 1.32273747 1.32467676 1.32661587 1.32855478 1.3304935
 1.33243203 1.33437038 1.33630853 1.3382465  1.34018429 1.34212189
 1.34405931 1.34599654 1.34793359 1.34987047 1.35180716 1.35374367
 1.35568001 1.35761618 1.35955216 1.36148798 1.36342362 1.36535909
 1.36729439 1.36922952 1.37116448 1.37309927 1.3750339  1.37696836
 1.37890266 1.38083679 1.38277076 1.38470457 1.38663823 1.38857172
 1.39050505 1.39243823 1.39437125 1.39630412 1.39823684 1.4001694
 1.40210181 1.40403408 1.40596619 1.40789816 1.40982998 1.41176165
 1.41369318 1.41562456 1.41755581 1.41948691 1.42141787 1.4233487
 1.42527938 1.42720993 1.42914035 1.43107063 1.43300077 1.43493079
 1.43686067 1.43879042 1.44072005 1.44264955 1.44457892 1.44650816
 1.44843729 1.45036629 1.45229516 1.45422392 1.45615256 1.45808107
 1.46000947 1.46193776 1.46386593 1.46579399 1.46772193 1.46964976
 1.47157748 1.47350509 1.4754326  1.47735999 1.47928729 1.48121447
 1.48314156 1.48506854 1.48699542 1.4889222  1.49084888 1.49277546
 1.49470195 1.49662834 1.49855464 1.50048084 1.50240695 1.50433297
 1.5062589  1.50818475 1.5101105  1.51203617 1.51396176 1.51588726
 1.51781268 1.51973802 1.52166328 1.52358845 1.52551355 1.52743858
 1.52936353 1.5312884  1.5332132  1.53513793 1.53706259 1.53898718
 1.5409117  1.54283615 1.54476054 1.54668486 1.54860912 1.55053331
 1.55245745 1.55438152 1.55630553 1.55822949 1.56015339 1.56207724
 1.56400103 1.56592476 1.56784845 1.56977208 1.57169567 1.5736192
 1.57554269 1.57746614 1.57938954 1.58131289 1.5832362  1.58515947
 1.5870827  1.5890059  1.59092905 1.59285217 1.59477525 1.5966983
 1.59862131 1.6005443  1.60246725 1.60439017 1.60631307 1.60823594
 1.61015878 1.6120816  1.61400439 1.61592716 1.61784991 1.61977264
 1.62169536 1.62361805 1.62554073 1.62746339 1.62938604 1.63130868
 1.6332313  1.63515392 1.63707652 1.63899912 1.64092171 1.6428443
 1.64476688 1.64668945 1.64861203 1.6505346  1.65245718 1.65437975
 1.65630233 1.65822491 1.6601475  1.6620701  1.6639927  1.66591531
 1.66783793 1.66976056 1.6716832  1.67360586 1.67552853 1.67745122
 1.67937392 1.68129665 1.68321939 1.68514215 1.68706494 1.68898774
 1.69091057 1.69283343 1.69475631 1.69667923 1.69860217 1.70052514
 1.70244814 1.70437117 1.70629424 1.70821734 1.71014048 1.71206366
 1.71398687 1.71591013 1.71783342 1.71975676 1.72168014 1.72360356
 1.72552703 1.72745055 1.72937411 1.73129773 1.73322139 1.73514511
 1.73706888 1.7389927  1.74091658 1.74284051 1.7447645  1.74668855
 1.74861266 1.75053684 1.75246107 1.75438537 1.75630973 1.75823415
 1.76015865 1.76208321 1.76400784 1.76593255 1.76785732 1.76978217
 1.77170709 1.77363208 1.77555716 1.77748231 1.77940754 1.78133285
 1.78325824 1.78518371 1.78710927 1.78903491 1.79096064 1.79288645
 1.79481235 1.79673835 1.79866443 1.8005906  1.80251687 1.80444323
 1.80636969 1.80829625 1.8102229  1.81214965 1.8140765  1.81600345
 1.81793051 1.81985766 1.82178493 1.8237123  1.82563977 1.82756736
 1.82949505 1.83142286 1.83335078 1.83527881 1.83720695 1.83913521
 1.84106359 1.84299208 1.84492069 1.84684943 1.84877828 1.85070726
 1.85263636 1.85456558 1.85649494 1.85842442 1.86035402 1.86228376
 1.86421363 1.86614363 1.86807376 1.87000402 1.87193443 1.87386496
 1.87579564 1.87772646 1.87965741 1.88158851 1.88351974 1.88545113
 1.88738265 1.88931433 1.89124615 1.89317811 1.89511023 1.8970425
 1.89897492 1.90090749 1.90284022 1.9047731  1.90670614 1.90863933
 1.91057269 1.9125062  1.91443988 1.91637371 1.91830771 1.92024188
 1.92217621 1.92411071 1.92604537 1.92798021 1.92991521 1.93185039
 1.93378574 1.93572126 1.93765696 1.93959283 1.94152888 1.94346511
 1.94540152 1.94733811 1.94927488 1.95121184 1.95314898 1.9550863
 1.95702381 1.95896151 1.9608994  1.96283747 1.96477574 1.9667142
 1.96865285 1.9705917  1.97253075 1.97446999 1.97640942 1.97834906
 1.9802889  1.98222894 1.98416918 1.98610963 1.98805028 1.98999113
 1.99193219 1.99387347 1.99581495 1.99775664 1.99969854 2.00164066
 2.00358299 2.00552553 2.00746829 2.00941127 2.01135447 2.01329789
 2.01524153 2.01718538 2.01912947 2.02107377 2.02301831 2.02496307
 2.02690805 2.02885327 2.03079871 2.03274439 2.0346903  2.03663644
 2.03858282 2.04052943 2.04247628 2.04442336 2.04637069 2.04831825
 2.05026606 2.05221411 2.0541624  2.05611094 2.05805972 2.06000875
 2.06195803 2.06390756 2.06585733 2.06780736 2.06975764 2.07170818
 2.07365897 2.07561001 2.07756132 2.07951288 2.0814647  2.08341678
 2.08536912 2.08732172 2.08927459 2.09122772 2.09318112 2.09513479
 2.09708872 2.09904292 2.1009974  2.10295214 2.10490716 2.10686245
 2.10881802 2.11077386 2.11272998 2.11468638 2.11664306 2.11860001
 2.12055725 2.12251477 2.12447258 2.12643067 2.12838905 2.13034771
 2.13230666 2.13426591 2.13622544 2.13818526 2.14014538 2.14210579
 2.14406649 2.14602749 2.14798879 2.14995039 2.15191228 2.15387448
 2.15583697 2.15779977 2.15976288 2.16172628 2.16369    2.16565402
 2.16761835 2.16958299 2.17154794 2.1735132  2.17547877 2.17744466
 2.17941086 2.18137737 2.18334421 2.18531136 2.18727883 2.18924662
 2.19121473 2.19318316 2.19515192 2.197121   2.19909041 2.20106015
 2.20303021 2.2050006  2.20697132 2.20894237 2.21091376 2.21288548
 2.21485753 2.21682991 2.21880264 2.2207757  2.2227491  2.22472284
 2.22669692 2.22867134 2.23064611 2.23262122 2.23459667 2.23657247
 2.23854862 2.24052512 2.24250196 2.24447916 2.24645671 2.24843461
 2.25041286 2.25239147 2.25437044 2.25634976 2.25832944 2.26030948
 2.26228988 2.26427064 2.26625176 2.26823325 2.2702151  2.27219732
 2.2741799  2.27616285 2.27814617 2.28012986 2.28211392 2.28409836
 2.28608316 2.28806834 2.2900539  2.29203983 2.29402614 2.29601283
 2.29799989 2.29998734 2.30197517 2.30396338 2.30595197 2.30794095
 2.30993032 2.31192007 2.31391021 2.31590074 2.31789166 2.31988297
 2.32187467 2.32386677 2.32585926 2.32785214 2.32984543 2.3318391
 2.33383318 2.33582766 2.33782254 2.33981782 2.3418135  2.34380958
 2.34580607 2.34780297 2.34980027 2.35179799 2.35379611 2.35579464
 2.35779358 2.35979293 2.3617927  2.36379288 2.36579347 2.36779449
 2.36979592 2.37179776 2.37380003 2.37580272]
t = [1.06996209e+09 1.06996213e+09 1.06996216e+09 1.06996220e+09
 1.06996224e+09 1.06996228e+09 1.06996232e+09 1.06996236e+09
 1.06996240e+09 1.06996243e+09 1.06996247e+09 1.06996251e+09
 1.06996255e+09 1.06996259e+09 1.06996263e+09 1.06996267e+09
 1.06996270e+09 1.06996274e+09 1.06996278e+09 1.06996282e+09
 1.06996286e+09 1.06996290e+09 1.06996294e+09 1.06996297e+09
 1.06996301e+09 1.06996305e+09 1.06996309e+09 1.06996313e+09
 1.06996317e+09 1.06996321e+09 1.06996324e+09 1.06996328e+09
 1.06996332e+09 1.06996336e+09 1.06996340e+09 1.06996344e+09
 1.06996348e+09 1.06996351e+09 1.06996355e+09 1.06996359e+09
 1.06996363e+09 1.06996367e+09 1.06996371e+09 1.06996375e+09
 1.06996378e+09 1.06996382e+09 1.06996386e+09 1.06996390e+09
 1.06996394e+09 1.06996398e+09 1.06996402e+09 1.06996405e+09
 1.06996409e+09 1.06996413e+09 1.06996417e+09 1.06996421e+09
 1.06996425e+09 1.06996429e+09 1.06996432e+09 1.06996436e+09
 1.06996440e+09 1.06996444e+09 1.06996448e+09 1.06996452e+09
 1.06996455e+09 1.06996459e+09 1.06996463e+09 1.06996467e+09
 1.06996471e+09 1.06996475e+09 1.06996479e+09 1.06996482e+09
 1.06996486e+09 1.06996490e+09 1.06996494e+09 1.06996498e+09
 1.06996502e+09 1.06996506e+09 1.06996509e+09 1.06996513e+09
 1.06996517e+09 1.06996521e+09 1.06996525e+09 1.06996529e+09
 1.06996533e+09 1.06996536e+09 1.06996540e+09 1.06996544e+09
 1.06996548e+09 1.06996552e+09 1.06996556e+09 1.06996560e+09
 1.06996563e+09 1.06996567e+09 1.06996571e+09 1.06996575e+09
 1.06996579e+09 1.06996583e+09 1.06996587e+09 1.06996590e+09
 1.06996594e+09 1.06996598e+09 1.06996602e+09 1.06996606e+09
 1.06996610e+09 1.06996614e+09 1.06996617e+09 1.06996621e+09
 1.06996625e+09 1.06996629e+09 1.06996633e+09 1.06996637e+09
 1.06996641e+09 1.06996644e+09 1.06996648e+09 1.06996652e+09
 1.06996656e+09 1.06996660e+09 1.06996664e+09 1.06996668e+09
 1.06996671e+09 1.06996675e+09 1.06996679e+09 1.06996683e+09
 1.06996687e+09 1.06996691e+09 1.06996695e+09 1.06996698e+09
 1.06996702e+09 1.06996706e+09 1.06996710e+09 1.06996714e+09
 1.06996718e+09 1.06996721e+09 1.06996725e+09 1.06996729e+09
 1.06996733e+09 1.06996737e+09 1.06996741e+09 1.06996745e+09
 1.06996748e+09 1.06996752e+09 1.06996756e+09 1.06996760e+09
 1.06996764e+09 1.06996768e+09 1.06996772e+09 1.06996775e+09
 1.06996779e+09 1.06996783e+09 1.06996787e+09 1.06996791e+09
 1.06996795e+09 1.06996799e+09 1.06996802e+09 1.06996806e+09
 1.06996810e+09 1.06996814e+09 1.06996818e+09 1.06996822e+09
 1.06996826e+09 1.06996829e+09 1.06996833e+09 1.06996837e+09
 1.06996841e+09 1.06996845e+09 1.06996849e+09 1.06996853e+09
 1.06996856e+09 1.06996860e+09 1.06996864e+09 1.06996868e+09
 1.06996872e+09 1.06996876e+09 1.06996880e+09 1.06996883e+09
 1.06996887e+09 1.06996891e+09 1.06996895e+09 1.06996899e+09
 1.06996903e+09 1.06996907e+09 1.06996910e+09 1.06996914e+09
 1.06996918e+09 1.06996922e+09 1.06996926e+09 1.06996930e+09
 1.06996934e+09 1.06996937e+09 1.06996941e+09 1.06996945e+09
 1.06996949e+09 1.06996953e+09 1.06996957e+09 1.06996961e+09
 1.06996964e+09 1.06996968e+09 1.06996972e+09 1.06996976e+09
 1.06996980e+09 1.06996984e+09 1.06996987e+09 1.06996991e+09
 1.06996995e+09 1.06996999e+09 1.06997003e+09 1.06997007e+09
 1.06997011e+09 1.06997014e+09 1.06997018e+09 1.06997022e+09
 1.06997026e+09 1.06997030e+09 1.06997034e+09 1.06997038e+09
 1.06997041e+09 1.06997045e+09 1.06997049e+09 1.06997053e+09
 1.06997057e+09 1.06997061e+09 1.06997065e+09 1.06997068e+09
 1.06997072e+09 1.06997076e+09 1.06997080e+09 1.06997084e+09
 1.06997088e+09 1.06997092e+09 1.06997095e+09 1.06997099e+09
 1.06997103e+09 1.06997107e+09 1.06997111e+09 1.06997115e+09
 1.06997119e+09 1.06997122e+09 1.06997126e+09 1.06997130e+09
 1.06997134e+09 1.06997138e+09 1.06997142e+09 1.06997146e+09
 1.06997149e+09 1.06997153e+09 1.06997157e+09 1.06997161e+09
 1.06997165e+09 1.06997169e+09 1.06997173e+09 1.06997176e+09
 1.06997180e+09 1.06997184e+09 1.06997188e+09 1.06997192e+09
 1.06997196e+09 1.06997200e+09 1.06997203e+09 1.06997207e+09
 1.06997211e+09 1.06997215e+09 1.06997219e+09 1.06997223e+09
 1.06997227e+09 1.06997230e+09 1.06997234e+09 1.06997238e+09
 1.06997242e+09 1.06997246e+09 1.06997250e+09 1.06997254e+09
 1.06997257e+09 1.06997261e+09 1.06997265e+09 1.06997269e+09
 1.06997273e+09 1.06997277e+09 1.06997280e+09 1.06997284e+09
 1.06997288e+09 1.06997292e+09 1.06997296e+09 1.06997300e+09
 1.06997304e+09 1.06997307e+09 1.06997311e+09 1.06997315e+09
 1.06997319e+09 1.06997323e+09 1.06997327e+09 1.06997331e+09
 1.06997334e+09 1.06997338e+09 1.06997342e+09 1.06997346e+09
 1.06997350e+09 1.06997354e+09 1.06997358e+09 1.06997361e+09
 1.06997365e+09 1.06997369e+09 1.06997373e+09 1.06997377e+09
 1.06997381e+09 1.06997385e+09 1.06997388e+09 1.06997392e+09
 1.06997396e+09 1.06997400e+09 1.06997404e+09 1.06997408e+09
 1.06997412e+09 1.06997415e+09 1.06997419e+09 1.06997423e+09
 1.06997427e+09 1.06997431e+09 1.06997435e+09 1.06997439e+09
 1.06997442e+09 1.06997446e+09 1.06997450e+09 1.06997454e+09
 1.06997458e+09 1.06997462e+09 1.06997466e+09 1.06997469e+09
 1.06997473e+09 1.06997477e+09 1.06997481e+09 1.06997485e+09
 1.06997489e+09 1.06997493e+09 1.06997496e+09 1.06997500e+09
 1.06997504e+09 1.06997508e+09 1.06997512e+09 1.06997516e+09
 1.06997520e+09 1.06997523e+09 1.06997527e+09 1.06997531e+09
 1.06997535e+09 1.06997539e+09 1.06997543e+09 1.06997546e+09
 1.06997550e+09 1.06997554e+09 1.06997558e+09 1.06997562e+09
 1.06997566e+09 1.06997570e+09 1.06997573e+09 1.06997577e+09
 1.06997581e+09 1.06997585e+09 1.06997589e+09 1.06997593e+09
 1.06997597e+09 1.06997600e+09 1.06997604e+09 1.06997608e+09
 1.06997612e+09 1.06997616e+09 1.06997620e+09 1.06997624e+09
 1.06997627e+09 1.06997631e+09 1.06997635e+09 1.06997639e+09
 1.06997643e+09 1.06997647e+09 1.06997651e+09 1.06997654e+09
 1.06997658e+09 1.06997662e+09 1.06997666e+09 1.06997670e+09
 1.06997674e+09 1.06997678e+09 1.06997681e+09 1.06997685e+09
 1.06997689e+09 1.06997693e+09 1.06997697e+09 1.06997701e+09
 1.06997705e+09 1.06997708e+09 1.06997712e+09 1.06997716e+09
 1.06997720e+09 1.06997724e+09 1.06997728e+09 1.06997732e+09
 1.06997735e+09 1.06997739e+09 1.06997743e+09 1.06997747e+09
 1.06997751e+09 1.06997755e+09 1.06997759e+09 1.06997762e+09
 1.06997766e+09 1.06997770e+09 1.06997774e+09 1.06997778e+09
 1.06997782e+09 1.06997786e+09 1.06997789e+09 1.06997793e+09
 1.06997797e+09 1.06997801e+09 1.06997805e+09 1.06997809e+09
 1.06997812e+09 1.06997816e+09 1.06997820e+09 1.06997824e+09
 1.06997828e+09 1.06997832e+09 1.06997836e+09 1.06997839e+09
 1.06997843e+09 1.06997847e+09 1.06997851e+09 1.06997855e+09
 1.06997859e+09 1.06997863e+09 1.06997866e+09 1.06997870e+09
 1.06997874e+09 1.06997878e+09 1.06997882e+09 1.06997886e+09
 1.06997890e+09 1.06997893e+09 1.06997897e+09 1.06997901e+09
 1.06997905e+09 1.06997909e+09 1.06997913e+09 1.06997917e+09
 1.06997920e+09 1.06997924e+09 1.06997928e+09 1.06997932e+09
 1.06997936e+09 1.06997940e+09 1.06997944e+09 1.06997947e+09
 1.06997951e+09 1.06997955e+09 1.06997959e+09 1.06997963e+09
 1.06997967e+09 1.06997971e+09 1.06997974e+09 1.06997978e+09
 1.06997982e+09 1.06997986e+09 1.06997990e+09 1.06997994e+09
 1.06997998e+09 1.06998001e+09 1.06998005e+09 1.06998009e+09
 1.06998013e+09 1.06998017e+09 1.06998021e+09 1.06998025e+09
 1.06998028e+09 1.06998032e+09 1.06998036e+09 1.06998040e+09
 1.06998044e+09 1.06998048e+09 1.06998052e+09 1.06998055e+09
 1.06998059e+09 1.06998063e+09 1.06998067e+09 1.06998071e+09
 1.06998075e+09 1.06998078e+09 1.06998082e+09 1.06998086e+09
 1.06998090e+09 1.06998094e+09 1.06998098e+09 1.06998102e+09
 1.06998105e+09 1.06998109e+09 1.06998113e+09 1.06998117e+09
 1.06998121e+09 1.06998125e+09 1.06998129e+09 1.06998132e+09
 1.06998136e+09 1.06998140e+09 1.06998144e+09 1.06998148e+09
 1.06998152e+09 1.06998156e+09 1.06998159e+09 1.06998163e+09
 1.06998167e+09 1.06998171e+09 1.06998175e+09 1.06998179e+09
 1.06998183e+09 1.06998186e+09 1.06998190e+09 1.06998194e+09
 1.06998198e+09 1.06998202e+09 1.06998206e+09 1.06998210e+09
 1.06998213e+09 1.06998217e+09 1.06998221e+09 1.06998225e+09
 1.06998229e+09 1.06998233e+09 1.06998237e+09 1.06998240e+09
 1.06998244e+09 1.06998248e+09 1.06998252e+09 1.06998256e+09
 1.06998260e+09 1.06998264e+09 1.06998267e+09 1.06998271e+09
 1.06998275e+09 1.06998279e+09 1.06998283e+09 1.06998287e+09
 1.06998291e+09 1.06998294e+09 1.06998298e+09 1.06998302e+09
 1.06998306e+09 1.06998310e+09 1.06998314e+09 1.06998318e+09
 1.06998321e+09 1.06998325e+09 1.06998329e+09 1.06998333e+09
 1.06998337e+09 1.06998341e+09 1.06998344e+09 1.06998348e+09
 1.06998352e+09 1.06998356e+09 1.06998360e+09 1.06998364e+09
