name =JUICE_ROI_GAN_6_1_05
flyby = ['2033 NOV 26 18:22:11', '2033 NOV 27 18:22:11']
Observation TW = <SpiceCell dtype = 1, length = 0, size = 2400, card = 4, is_set = 1, adjust = 0, init = 1, base = 94432232245680, data = 94432232245728>
Res(t) = [0.31988869 0.32110403 0.32235189 0.32363065 0.32493878 0.32627487
 0.32763757 0.32902562 0.33043784 0.33187311 0.33333039 0.33480868
 0.33630705 0.33782461 0.33936054 0.38159777 0.38302213 0.3844741
 0.38595246 0.38745601 0.38898368 0.3905344  0.39210719 0.39370113
 0.39531533 0.39694896 0.39860121 0.40027135 0.40195865 0.40366244
 0.40538207 0.40711693 0.40886644 0.41063004 0.41240721 0.41419743
 0.41600023 0.41781515 0.41964175 0.42147962 0.42332834 0.42518754
 0.42705686 0.42893594 0.43082445 0.43272206 0.43462847 0.43654338
 0.43846652 0.4403976  0.44233636 0.44428256 0.44623596 0.44819632
 0.45016342 0.45213705 0.454117   0.45610307 0.45809508 0.46009283
 0.46209615 0.46410488 0.46611884 0.46813788 0.47016184 0.47219058
 0.47422395 0.47626182 0.47830405 0.48035052 0.48240109 0.48445566
 0.48651411 0.48857631 0.49064217 0.49271158 0.49478444 0.49686065
 0.49894011 0.50102273 0.50310843 0.50519711 0.50728869 0.50938309
 0.51148024 0.51358005 0.51568245 0.51778737 0.51989474 0.52200449
 0.52411656 0.52623088 0.5283474  0.53046604 0.53258675 0.53470948
 0.53683417 0.53896077 0.54108922 0.54321948 0.54535148 0.5474852
 0.54962057 0.55175756 0.55389612 0.5560362  0.55817778 0.56032079
 0.56246521 0.564611   0.56675812 0.56890653 0.57105619 0.57320708
 0.57535916 0.57751239 0.57966675 0.58182219 0.5839787  0.58613624
 0.58829479 0.59045431 0.59261477 0.59477616 0.59693844 0.59910159
 0.60126558 0.60343039 0.60559599 0.60776237 0.6099295  0.61209736
 0.61426592 0.61643517 0.61860508 0.62077563 0.62294682 0.6251186
 0.62729098 0.62946392 0.63163741 0.63381144 0.63598598 0.63816103
 0.64033655 0.64251255 0.644689   0.64686588 0.64904319 0.65122091
 0.65339901 0.6555775  0.65775636 0.65993557 0.66211512 0.664295
 0.66647519 0.66865569 0.67083648 0.67301755 0.67519889 0.67738049
 0.67956233 0.68174441 0.68392672 0.68610924 0.68829197 0.6904749
 0.69265801 0.6948413  0.69702476 0.69920838 0.70139215 0.70357607
 0.70576012 0.70794429 0.71012859 0.71231299 0.7144975  0.71668211
 0.7188668  0.72105158 0.72323643 0.72542135 0.72760633 0.72979136
 0.73197645 0.73416157 0.73634673 0.73853193 0.74071714 0.74290238
 0.74508762 0.74727288 0.74945814 0.75164339 0.75382864 0.75601387
 0.75819909 0.76038428 0.76256944 0.76475458 0.76693967 0.76912473
 0.77130974 0.7734947  0.77567961 0.77786446 0.78004925 0.78223398
 0.78441863 0.78660321 0.78878772 0.79097215 0.79315649 0.79534075
 0.79752492 0.799709   0.80189298 0.80407686 0.80626064 0.80844431
 0.81062788 0.81281133 0.81499468 0.8171779  0.81936101 0.821544
 0.82372686 0.8259096  0.82809221 0.8302747  0.83245704 0.83463926
 0.83682133 0.83900327 0.84118507 0.84336672 0.84554823 0.8477296
 0.84991081 0.85209188 0.85427279 0.85645355 0.85863415 0.8608146
 0.86299489 0.86517502 0.86735499 0.8695348  0.87171444 0.87389392
 0.87607323 0.87825237 0.88043134 0.88261015 0.88478878 0.88696724
 0.88914553 0.89132364 0.89350158 0.89567934 0.89785692 0.90003433
 0.90221156 0.9043886  0.90656547 0.90874215 0.91091866 0.91309497
 0.91527111 0.91744706 0.91962283 0.92179841 0.92397381 0.92614902
 0.92832404 0.93049887 0.93267352 0.93484798 0.93702225 0.93919633
 0.94137022 0.94354392 0.94571743 0.94789075 0.95006388 0.95223682
 0.95440957 0.95658213 0.95875449 0.96092666 0.96309864 0.96527043
 0.96744203 0.96961343 0.97178465 0.97395567 0.9761265  0.97829713
 0.98046757 0.98263783 0.98480788 0.98697775 0.98914743 0.99131691
 0.9934862  0.9956553  0.99782421 0.99999292 1.00216145 1.00432978
 1.00649792 1.00866588 1.01083364 1.01300121 1.01516859 1.01733579
 1.01950279 1.02166961 1.02383623 1.02600267 1.02816892 1.03033498
 1.03250086 1.03466655 1.03683205 1.03899736 1.0411625  1.04332744
 1.0454922  1.04765678 1.04982117 1.05198538 1.05414941 1.05631326
 1.05847692 1.0606404  1.0628037  1.06496683 1.06712977 1.06929253
 1.07145512 1.07361752 1.07577975 1.07794181 1.08010368 1.08226539
 1.08442691 1.08658827 1.08874945 1.09091045 1.09307129 1.09523195
 1.09739244 1.09955277 1.10171292 1.10387291 1.10603272 1.10819237
 1.11035186 1.11251118 1.11467033 1.11682932 1.11898814 1.12114681
 1.12330531 1.12546365 1.12762183 1.12977985 1.13193771 1.13409541
 1.13625296 1.13841035 1.14056758 1.14272466 1.14488159 1.14703836
 1.14919499 1.15135146 1.15350778 1.15566395 1.15781997 1.15997585
 1.16213158 1.16428716 1.1664426  1.16859789 1.17075304 1.17290805
 1.17506292 1.17721764 1.17937223 1.18152668 1.18368099 1.18583517
 1.18798921 1.19014311 1.19229688 1.19445052 1.19660403 1.19875741
 1.20091065 1.20306377 1.20521676 1.20736962 1.20952236 1.21167497
 1.21382746 1.21597983 1.21813207 1.22028419 1.2224362  1.22458808
 1.22673985 1.2288915  1.23104304 1.23319446 1.23534576 1.23749696
 1.23964804 1.24179902 1.24394988 1.24610063 1.24825128 1.25040183
 1.25255226 1.2547026  1.25685283 1.25900296 1.26115298 1.26330291
 1.26545274 1.26760247 1.26975211 1.27190165 1.2740511  1.27620045
 1.27834971 1.28049889 1.28264797 1.28479696 1.28694587 1.28909469
 1.29124342 1.29339207 1.29554064 1.29768912 1.29983753 1.30198585
 1.3041341  1.30628227 1.30843036 1.31057838 1.31272633 1.3148742
 1.317022   1.31916973 1.32131739 1.32346499 1.32561251 1.32775998
 1.32990737 1.33205471 1.33420198 1.33634919 1.33849634 1.34064343
 1.34279046 1.34493744 1.34708436 1.34923123 1.35137805 1.35352481
 1.35567153 1.35781819 1.35996481 1.36211138 1.36425791 1.36640439
 1.36855082 1.37069722 1.37284358 1.37498989 1.37713617 1.37928241
 1.38142861 1.38357478 1.38572092 1.38786702 1.39001309 1.39215914
 1.39430515 1.39645114 1.3985971  1.40074303 1.40288895 1.40503484
 1.4071807  1.40932655 1.41147238 1.41361819 1.41576399 1.41790977
 1.42005554 1.42220129 1.42434703 1.42649277 1.42863849 1.43078421
 1.43292992 1.43507562 1.43722132 1.43936702 1.44151271 1.44365841
 1.44580411 1.44794981 1.45009551 1.45224122 1.45438693 1.45653265
 1.45867838 1.46082412 1.46296987 1.46511563 1.46726141 1.4694072
 1.47155301 1.47369883 1.47584468 1.47799054 1.48013643 1.48228233
 1.48442826 1.48657422 1.4887202  1.49086621 1.49301225 1.49515832
 1.49730441 1.49945055 1.50159671 1.50374291 1.50588915 1.50803543
 1.51018174 1.51232809 1.51447449 1.51662093 1.51876741 1.52091394
 1.52306051 1.52520713 1.5273538  1.52950053 1.5316473  1.53379413
 1.53594101 1.53808794 1.54023494 1.54238199 1.5445291  1.54667627
 1.5488235  1.5509708  1.55311816 1.55526559 1.55741308 1.55956064
 1.56170827 1.56385598 1.56600375 1.5681516  1.57029952 1.57244752
 1.5745956  1.57674376 1.57889199 1.58104031 1.58318871 1.58533719
 1.58748576 1.58963442 1.59178316 1.59393199 1.59608092 1.59822993
 1.60037904 1.60252824 1.60467753 1.60682693 1.60897642 1.61112601
 1.6132757  1.6154255  1.61757539 1.6197254  1.6218755  1.62402572
 1.62617604 1.62832648 1.63047702 1.63262768 1.63477845 1.63692933
 1.63908033 1.64123145 1.64338269 1.64553405 1.64768553 1.64983713
 1.65198886 1.65414071 1.65629269 1.6584448  1.66059703 1.6627494
 1.6649019  1.66705453 1.6692073  1.6713602  1.67351324 1.67566642
 1.67781973 1.67997319 1.68212679 1.68428054 1.68643443 1.68858846
 1.69074264 1.69289698 1.69505146 1.69720609 1.69936088 1.70151582
 1.70367091 1.70582617 1.70798158 1.71013715 1.71229288 1.71444877
 1.71660482 1.71876104 1.72091743 1.72307398 1.7252307  1.72738759
 1.72954465 1.73170189 1.7338593  1.73601688 1.73817464 1.74033257
 1.74249069 1.74464898 1.74680746 1.74896612 1.75112496 1.75328399
 1.75544321 1.75760261 1.7597622  1.76192199 1.76408196 1.76624213
 1.76840249 1.77056305 1.77272381 1.77488476 1.77704591 1.77920727
 1.78136883 1.78353059 1.78569255 1.78785472 1.7900171  1.79217969
 1.79434249 1.7965055  1.79866872 1.80083216 1.80299581 1.80515968
 1.80732377 1.80948807 1.8116526  1.81381735 1.81598232 1.81814751
 1.82031293 1.82247858 1.82464446 1.82681057 1.8289769  1.83114347
 1.83331028 1.83547732 1.83764459 1.8398121  1.84197985 1.84414784
 1.84631608 1.84848455 1.85065327 1.85282223 1.85499145 1.8571609
 1.85933061 1.86150057 1.86367078 1.86584124 1.86801196 1.87018293
 1.87235417 1.87452565 1.8766974  1.87886941 1.88104168 1.88321422
 1.88538702 1.88756008 1.88973342 1.89190702 1.89408089 1.89625503
 1.89842945 1.90060414 1.9027791  1.90495434 1.90712986 1.90930566
 1.91148174 1.9136581  1.91583474 1.91801167 1.92018888 1.92236638
 1.92454416 1.92672224 1.92890061 1.93107927 1.93325822 1.93543747
 1.93761701 1.93979685 1.94197699 1.94415743 1.94633817 1.94851921
 1.95070056 1.95288221 1.95506416 1.95724643 1.959429   1.96161188
 1.96379508 1.96597858 1.9681624  1.97034654 1.97253099 1.97471576
 1.97690085 1.97908626 1.981272   1.98345805 1.98564443 1.98783113
 1.99001816 1.99220552 1.99439321 1.99658123 1.99876958 2.00095827
 2.00314729 2.00533664 2.00752634 2.00971637 2.01190674 2.01409745
 2.0162885  2.0184799  2.02067164 2.02286373 2.02505616 2.02724895
 2.02944208 2.03163557 2.0338294  2.03602359 2.03821814 2.04041304
 2.0426083  2.04480392 2.0469999  2.04919625 2.05139295 2.05359002
 2.05578745 2.05798525 2.06018342 2.06238195 2.06458086 2.06678014
 2.06897979 2.07117982 2.07338022 2.075581   2.07778215 2.07998369
 2.08218561 2.08438791 2.08659059 2.08879365 2.0909971  2.09320094
 2.09540517 2.09760979 2.09981479 2.10202019 2.10422599 2.10643217
 2.10863876 2.11084574 2.11305312 2.1152609  2.11746908 2.11967766
 2.12188664 2.12409603 2.12630583 2.12851603 2.13072664 2.13293767
 2.1351491  2.13736095 2.1395732  2.14178588 2.14399897 2.14621248
 2.1484264  2.15064075 2.15285552 2.15507071 2.15728632 2.15950236
 2.16171883 2.16393572 2.16615304 2.16837079 2.17058897 2.17280759
 2.17502664 2.17724613 2.17946605 2.1816864  2.1839072  2.18612844
 2.18835012 2.19057224 2.19279481 2.19501782 2.19724128 2.19946518
 2.20168954 2.20391434 2.2061396  2.2083653  2.21059147 2.21281809
 2.21504516 2.21727269 2.21950068 2.22172913 2.22395805 2.22618742
 2.22841726 2.23064757 2.23287834 2.23510958 2.23734129 2.23957346
 2.24180611 2.24403924 2.24627283 2.24850691 2.25074145 2.25297648
 2.25521199 2.25744797 2.25968444 2.26192139 2.26415882 2.26639674
 2.26863515 2.27087404 2.27311342 2.2753533  2.27759366 2.27983452
 2.28207587 2.28431771 2.28656005 2.28880289 2.29104623 2.29329007
 2.29553441 2.29777925 2.3000246  2.30227045 2.30451681 2.30676368
 2.30901105 2.31125894 2.31350733 2.31575624 2.31800566 2.3202556
 2.32250605 2.32475702 2.32700851 2.32926052 2.33151305 2.33376611
 2.33601968 2.33827379 2.34052841 2.34278357 2.34503925 2.34729547
 2.34955221 2.35180949 2.3540673  2.35632564 2.35858453 2.36084394
 2.3631039  2.3653644  2.36762543 2.36988701 2.37214914 2.3744118
 2.37667502 2.37893878 2.38120308 2.38346794 2.38573335 2.38799931
 2.39026582 2.39253289 2.39480052 2.3970687  2.39933743 2.40160673
 2.40387659 2.40614701 2.40841799 2.41068954 2.41296165 2.41523433
 2.41750757 2.41978139 2.42205577 2.42433073 2.42660626 2.42888236
 2.43115904 2.4334363  2.43571413 2.43799254 2.44027153 2.4425511
 2.44483126 2.44711199 2.44939332 2.45167523 2.45395772 2.45624081
 2.45852448 2.46080875 2.4630936  2.46537905 2.4676651  2.46995174
 2.47223898 2.47452681 2.47681525 2.47910428 2.48139392 2.48368416
 2.485975   2.48826645 2.49055851 2.49285117 2.49514444 2.49743833
 2.49973282 2.50202793 2.50432365 2.50661998]
t = [1.06996115e+09 1.06996119e+09 1.06996123e+09 1.06996127e+09
 1.06996131e+09 1.06996135e+09 1.06996139e+09 1.06996143e+09
 1.06996147e+09 1.06996151e+09 1.06996155e+09 1.06996158e+09
 1.06996162e+09 1.06996166e+09 1.06996170e+09 1.06996174e+09
 1.06996178e+09 1.06996182e+09 1.06996186e+09 1.06996190e+09
 1.06996194e+09 1.06996198e+09 1.06996202e+09 1.06996206e+09
 1.06996210e+09 1.06996214e+09 1.06996218e+09 1.06996222e+09
 1.06996226e+09 1.06996230e+09 1.06996233e+09 1.06996237e+09
 1.06996241e+09 1.06996245e+09 1.06996249e+09 1.06996253e+09
 1.06996257e+09 1.06996261e+09 1.06996265e+09 1.06996269e+09
 1.06996273e+09 1.06996277e+09 1.06996281e+09 1.06996285e+09
 1.06996289e+09 1.06996293e+09 1.06996297e+09 1.06996301e+09
 1.06996305e+09 1.06996309e+09 1.06996312e+09 1.06996316e+09
 1.06996320e+09 1.06996324e+09 1.06996328e+09 1.06996332e+09
 1.06996336e+09 1.06996340e+09 1.06996344e+09 1.06996348e+09
 1.06996352e+09 1.06996356e+09 1.06996360e+09 1.06996364e+09
 1.06996368e+09 1.06996372e+09 1.06996376e+09 1.06996380e+09
 1.06996384e+09 1.06996387e+09 1.06996391e+09 1.06996395e+09
 1.06996399e+09 1.06996403e+09 1.06996407e+09 1.06996411e+09
 1.06996415e+09 1.06996419e+09 1.06996423e+09 1.06996427e+09
 1.06996431e+09 1.06996435e+09 1.06996439e+09 1.06996443e+09
 1.06996447e+09 1.06996451e+09 1.06996455e+09 1.06996459e+09
 1.06996463e+09 1.06996466e+09 1.06996470e+09 1.06996474e+09
 1.06996478e+09 1.06996482e+09 1.06996486e+09 1.06996490e+09
 1.06996494e+09 1.06996498e+09 1.06996502e+09 1.06996506e+09
 1.06996510e+09 1.06996514e+09 1.06996518e+09 1.06996522e+09
 1.06996526e+09 1.06996530e+09 1.06996534e+09 1.06996538e+09
 1.06996542e+09 1.06996545e+09 1.06996549e+09 1.06996553e+09
 1.06996557e+09 1.06996561e+09 1.06996565e+09 1.06996569e+09
 1.06996573e+09 1.06996577e+09 1.06996581e+09 1.06996585e+09
 1.06996589e+09 1.06996593e+09 1.06996597e+09 1.06996601e+09
 1.06996605e+09 1.06996609e+09 1.06996613e+09 1.06996617e+09
 1.06996620e+09 1.06996624e+09 1.06996628e+09 1.06996632e+09
 1.06996636e+09 1.06996640e+09 1.06996644e+09 1.06996648e+09
 1.06996652e+09 1.06996656e+09 1.06996660e+09 1.06996664e+09
 1.06996668e+09 1.06996672e+09 1.06996676e+09 1.06996680e+09
 1.06996684e+09 1.06996688e+09 1.06996692e+09 1.06996696e+09
 1.06996699e+09 1.06996703e+09 1.06996707e+09 1.06996711e+09
 1.06996715e+09 1.06996719e+09 1.06996723e+09 1.06996727e+09
 1.06996731e+09 1.06996735e+09 1.06996739e+09 1.06996743e+09
 1.06996747e+09 1.06996751e+09 1.06996755e+09 1.06996759e+09
 1.06996763e+09 1.06996767e+09 1.06996771e+09 1.06996774e+09
 1.06996778e+09 1.06996782e+09 1.06996786e+09 1.06996790e+09
 1.06996794e+09 1.06996798e+09 1.06996802e+09 1.06996806e+09
 1.06996810e+09 1.06996814e+09 1.06996818e+09 1.06996822e+09
 1.06996826e+09 1.06996830e+09 1.06996834e+09 1.06996838e+09
 1.06996842e+09 1.06996846e+09 1.06996850e+09 1.06996853e+09
 1.06996857e+09 1.06996861e+09 1.06996865e+09 1.06996869e+09
 1.06996873e+09 1.06996877e+09 1.06996881e+09 1.06996885e+09
 1.06996889e+09 1.06996893e+09 1.06996897e+09 1.06996901e+09
 1.06996905e+09 1.06996909e+09 1.06996913e+09 1.06996917e+09
 1.06996921e+09 1.06996925e+09 1.06996929e+09 1.06996932e+09
 1.06996936e+09 1.06996940e+09 1.06996944e+09 1.06996948e+09
 1.06996952e+09 1.06996956e+09 1.06996960e+09 1.06996964e+09
 1.06996968e+09 1.06996972e+09 1.06996976e+09 1.06996980e+09
 1.06996984e+09 1.06996988e+09 1.06996992e+09 1.06996996e+09
 1.06997000e+09 1.06997004e+09 1.06997007e+09 1.06997011e+09
 1.06997015e+09 1.06997019e+09 1.06997023e+09 1.06997027e+09
 1.06997031e+09 1.06997035e+09 1.06997039e+09 1.06997043e+09
 1.06997047e+09 1.06997051e+09 1.06997055e+09 1.06997059e+09
 1.06997063e+09 1.06997067e+09 1.06997071e+09 1.06997075e+09
 1.06997079e+09 1.06997083e+09 1.06997086e+09 1.06997090e+09
 1.06997094e+09 1.06997098e+09 1.06997102e+09 1.06997106e+09
 1.06997110e+09 1.06997114e+09 1.06997118e+09 1.06997122e+09
 1.06997126e+09 1.06997130e+09 1.06997134e+09 1.06997138e+09
 1.06997142e+09 1.06997146e+09 1.06997150e+09 1.06997154e+09
 1.06997158e+09 1.06997161e+09 1.06997165e+09 1.06997169e+09
 1.06997173e+09 1.06997177e+09 1.06997181e+09 1.06997185e+09
 1.06997189e+09 1.06997193e+09 1.06997197e+09 1.06997201e+09
 1.06997205e+09 1.06997209e+09 1.06997213e+09 1.06997217e+09
 1.06997221e+09 1.06997225e+09 1.06997229e+09 1.06997233e+09
 1.06997237e+09 1.06997240e+09 1.06997244e+09 1.06997248e+09
 1.06997252e+09 1.06997256e+09 1.06997260e+09 1.06997264e+09
 1.06997268e+09 1.06997272e+09 1.06997276e+09 1.06997280e+09
 1.06997284e+09 1.06997288e+09 1.06997292e+09 1.06997296e+09
 1.06997300e+09 1.06997304e+09 1.06997308e+09 1.06997312e+09
 1.06997315e+09 1.06997319e+09 1.06997323e+09 1.06997327e+09
 1.06997331e+09 1.06997335e+09 1.06997339e+09 1.06997343e+09
 1.06997347e+09 1.06997351e+09 1.06997355e+09 1.06997359e+09
 1.06997363e+09 1.06997367e+09 1.06997371e+09 1.06997375e+09
 1.06997379e+09 1.06997383e+09 1.06997387e+09 1.06997391e+09
 1.06997394e+09 1.06997398e+09 1.06997402e+09 1.06997406e+09
 1.06997410e+09 1.06997414e+09 1.06997418e+09 1.06997422e+09
 1.06997426e+09 1.06997430e+09 1.06997434e+09 1.06997438e+09
 1.06997442e+09 1.06997446e+09 1.06997450e+09 1.06997454e+09
 1.06997458e+09 1.06997462e+09 1.06997466e+09 1.06997470e+09
 1.06997473e+09 1.06997477e+09 1.06997481e+09 1.06997485e+09
 1.06997489e+09 1.06997493e+09 1.06997497e+09 1.06997501e+09
 1.06997505e+09 1.06997509e+09 1.06997513e+09 1.06997517e+09
 1.06997521e+09 1.06997525e+09 1.06997529e+09 1.06997533e+09
 1.06997537e+09 1.06997541e+09 1.06997545e+09 1.06997548e+09
 1.06997552e+09 1.06997556e+09 1.06997560e+09 1.06997564e+09
 1.06997568e+09 1.06997572e+09 1.06997576e+09 1.06997580e+09
 1.06997584e+09 1.06997588e+09 1.06997592e+09 1.06997596e+09
 1.06997600e+09 1.06997604e+09 1.06997608e+09 1.06997612e+09
 1.06997616e+09 1.06997620e+09 1.06997624e+09 1.06997627e+09
 1.06997631e+09 1.06997635e+09 1.06997639e+09 1.06997643e+09
 1.06997647e+09 1.06997651e+09 1.06997655e+09 1.06997659e+09
 1.06997663e+09 1.06997667e+09 1.06997671e+09 1.06997675e+09
 1.06997679e+09 1.06997683e+09 1.06997687e+09 1.06997691e+09
 1.06997695e+09 1.06997699e+09 1.06997702e+09 1.06997706e+09
 1.06997710e+09 1.06997714e+09 1.06997718e+09 1.06997722e+09
 1.06997726e+09 1.06997730e+09 1.06997734e+09 1.06997738e+09
 1.06997742e+09 1.06997746e+09 1.06997750e+09 1.06997754e+09
 1.06997758e+09 1.06997762e+09 1.06997766e+09 1.06997770e+09
 1.06997774e+09 1.06997778e+09 1.06997781e+09 1.06997785e+09
 1.06997789e+09 1.06997793e+09 1.06997797e+09 1.06997801e+09
 1.06997805e+09 1.06997809e+09 1.06997813e+09 1.06997817e+09
 1.06997821e+09 1.06997825e+09 1.06997829e+09 1.06997833e+09
 1.06997837e+09 1.06997841e+09 1.06997845e+09 1.06997849e+09
 1.06997853e+09 1.06997857e+09 1.06997860e+09 1.06997864e+09
 1.06997868e+09 1.06997872e+09 1.06997876e+09 1.06997880e+09
 1.06997884e+09 1.06997888e+09 1.06997892e+09 1.06997896e+09
 1.06997900e+09 1.06997904e+09 1.06997908e+09 1.06997912e+09
 1.06997916e+09 1.06997920e+09 1.06997924e+09 1.06997928e+09
 1.06997932e+09 1.06997935e+09 1.06997939e+09 1.06997943e+09
 1.06997947e+09 1.06997951e+09 1.06997955e+09 1.06997959e+09
 1.06997963e+09 1.06997967e+09 1.06997971e+09 1.06997975e+09
 1.06997979e+09 1.06997983e+09 1.06997987e+09 1.06997991e+09
 1.06997995e+09 1.06997999e+09 1.06998003e+09 1.06998007e+09
 1.06998011e+09 1.06998014e+09 1.06998018e+09 1.06998022e+09
 1.06998026e+09 1.06998030e+09 1.06998034e+09 1.06998038e+09
 1.06998042e+09 1.06998046e+09 1.06998050e+09 1.06998054e+09
 1.06998058e+09 1.06998062e+09 1.06998066e+09 1.06998070e+09
 1.06998074e+09 1.06998078e+09 1.06998082e+09 1.06998086e+09
 1.06998089e+09 1.06998093e+09 1.06998097e+09 1.06998101e+09
 1.06998105e+09 1.06998109e+09 1.06998113e+09 1.06998117e+09
 1.06998121e+09 1.06998125e+09 1.06998129e+09 1.06998133e+09
 1.06998137e+09 1.06998141e+09 1.06998145e+09 1.06998149e+09
 1.06998153e+09 1.06998157e+09 1.06998161e+09 1.06998165e+09
 1.06998168e+09 1.06998172e+09 1.06998176e+09 1.06998180e+09
 1.06998184e+09 1.06998188e+09 1.06998192e+09 1.06998196e+09
 1.06998200e+09 1.06998204e+09 1.06998208e+09 1.06998212e+09
 1.06998216e+09 1.06998220e+09 1.06998224e+09 1.06998228e+09
 1.06998232e+09 1.06998236e+09 1.06998240e+09 1.06998244e+09
 1.06998247e+09 1.06998251e+09 1.06998255e+09 1.06998259e+09
 1.06998263e+09 1.06998267e+09 1.06998271e+09 1.06998275e+09
 1.06998279e+09 1.06998283e+09 1.06998287e+09 1.06998291e+09
 1.06998295e+09 1.06998299e+09 1.06998303e+09 1.06998307e+09
 1.06998311e+09 1.06998315e+09 1.06998319e+09 1.06998322e+09
