name =JUICE_ROI_GAN_1_0_07
flyby = ['2034 SEP 07 06:03:51', '2034 SEP 08 06:03:51']
Observation TW = <SpiceCell dtype = 1, length = 0, size = 3400, card = 14, is_set = 1, adjust = 0, init = 1, base = 94574003386832, data = 94574003386880>
Res(t) = [1.3850305  1.3842416  1.38345563 1.3826726  1.3818925  1.38111534
 1.38034112 1.37956984 1.3788015  1.37803611 1.37727367 1.37651418
 1.37575765 1.37500407 1.37425344 1.37350578 1.37276107 1.37201933
 1.37128055 1.37054474 1.3698119  1.36908203 1.36835513 1.36763121
 1.36691027 1.3661923  1.36547732 1.36476531 1.3640563  1.36335027
 1.36264722 1.36194717 1.36125011 1.36055605 1.35986498 1.35917691
 1.35849184 1.35780977 1.3571307  1.35645464 1.35578158 1.35511154
 1.3544445  1.35378048 1.35311947 1.35246148 1.3518065  1.35115455
 1.35050561 1.3498597  1.34921681 1.34857695 1.34794012 1.34730631
 1.34667554 1.3460478  1.34542309 1.34480142 1.34418278 1.34356718
 1.34295463 1.34234512 1.34173864 1.34113522 1.34053484 1.33993751
 1.33934323 1.338752   1.33816382 1.33757869 1.33699662 1.33641761
 1.33584165 1.33526876 1.33469892 1.33413215 1.33356843 1.33300779
 1.33245021 1.33189569 1.33134425 1.33079587 1.33025057 1.32970834
 1.32916918 1.32863309 1.32810008 1.32757015 1.32704329 1.32651952
 1.32599882 1.32548121 1.32496667 1.32445523 1.32394686 1.32344158
 1.32293939 1.32244028 1.32194427 1.32145134 1.3209615  1.32047476
 1.3199911  1.31951054 1.31903307 1.3185587  1.31808743 1.31761925
 1.31715416 1.31669218 1.31623329 1.31577751 1.31532482 1.31487523
 1.31442875 1.31398537 1.31354509 1.31310792 1.31267385 1.31224288
 1.31181502 1.31139027 1.31096862 1.31055008 1.31013465 1.30972233
 1.30931311 1.30890701 1.30850401 1.30810413 1.30770735 1.30731369
 1.30692313 1.30653569 1.30615136 1.30577014 1.30539204 1.30501704
 1.30464516 1.3042764  1.30391074 1.3035482  1.30318878 1.30283247
 1.30247927 1.30212919 1.30178222 1.30143836 1.30109762 1.30075999
 1.30042548 1.30009409 1.2997658  1.29944063 1.29911858 1.29879964
 1.29848381 1.2981711  1.2978615  1.29755502 1.29725165 1.29695139
 1.29665424 1.29636021 1.29606929 1.29578148 1.29549678 1.2952152
 1.29493672 1.29466136 1.29438911 1.29411996 1.29385393 1.293591
 1.29333118 1.29307447 1.29282087 1.29257038 1.29232299 1.2920787
 1.29183752 1.29159945 1.29136448 1.29113261 1.29090384 1.29067818
 1.29045561 1.29023615 1.29001978 1.28980651 1.28959634 1.28938927
 1.28918529 1.28898441 1.28878662 1.28859192 1.28840031 1.2882118
 1.28802637 1.28784404 1.28766479 1.28748862 1.28731554 1.28714555
 1.28697864 1.28681481 1.28665406 1.28649639 1.2863418  1.28619029
 1.28604185 1.28589648 1.28575419 1.28561497 1.28547882 1.28534573
 1.28521572 1.28508877 1.28496488 1.28484406 1.2847263  1.28461159
 1.28449995 1.28439136 1.28428582 1.28418334 1.28408391 1.28398753
 1.28389419 1.2838039  1.28371666 1.28363246 1.2835513  1.28347317
 1.28339809 1.28332604 1.28325702 1.28319103 1.28312807 1.28306814
 1.28301124 1.28295735 1.28290649 1.28285865 1.28281382 1.28277201
 1.28273321 1.28269742 1.28266463 1.28263486 1.28260808 1.28258431
 1.28256354 1.28254576 1.28253098 1.28251919 1.28251039 1.28250457
 1.28250174 1.28250189 1.28250502 1.28251113 1.28252021 1.28253227
 1.28254729 1.28256528 1.28258624 1.28261015 1.28263703 1.28266686
 1.28269964 1.28273538 1.28277406 1.28281568 1.28286025 1.28290776
 1.2829582  1.28301158 1.28306789 1.28312712 1.28318928 1.28325437
 1.28332237 1.28339328 1.28346711 1.28354385 1.28362349 1.28370604
 1.28379148 1.28387983 1.28397106 1.28406519 1.28416221 1.2842621
 1.28436488 1.28447054 1.28457907 1.28469047 1.28480474 1.28492187
 1.28504186 1.28516471 1.28529041 1.28541896 1.28555036 1.2856846
 1.28582168 1.28596159 1.28610434 1.28624991 1.28639831 1.28654953
 1.28670357 1.28686042 1.28702009 1.28718255 1.28734782 1.28751589
 1.28768676 1.28786041 1.28803685 1.28821608 1.28839808 1.28858286
 1.28877041 1.28896072 1.2891538  1.28934964 1.28954824 1.28974958
 1.28995367 1.29016051 1.29037008 1.29058239 1.29079743 1.29101519
 1.29123568 1.29145889 1.2916848  1.29191343 1.29214476 1.2923788
 1.29261553 1.29285495 1.29309706 1.29334185 1.29358932 1.29383946
 1.29409228 1.29434776 1.2946059  1.29486669 1.29513014 1.29539624
 1.29566497 1.29593635 1.29621036 1.296487   1.29676626 1.29704814
 1.29733264 1.29761974 1.29790946 1.29820177 1.29849667 1.29879417
 1.29909426 1.29939692 1.29970217 1.30000998 1.30032036 1.3006333
 1.3009488  1.30126686 1.30158745 1.3019106  1.30223627 1.30256448
 1.30289522 1.30322848 1.30356426 1.30390254 1.30424334 1.30458663
 1.30493243 1.30528071 1.30563148 1.30598473 1.30634046 1.30669866
 1.30705932 1.30742245 1.30778802 1.30815605 1.30852653 1.30889944
 1.30927478 1.30965256 1.31003275 1.31041537 1.3108004  1.31118783
 1.31157767 1.3119699  1.31236452 1.31276153 1.31316091 1.31356267
 1.3139668  1.3143733  1.31478215 1.31519335 1.3156069  1.31602279
 1.31644102 1.31686157 1.31728445 1.31770965 1.31813716 1.31856698
 1.3189991  1.31943351 1.31987022 1.32030921 1.32075048 1.32119402
 1.32163983 1.3220879  1.32253823 1.3229908  1.32344562 1.32390268
 1.32436197 1.32482349 1.32528723 1.32575319 1.32622135 1.32669172
 1.32716428 1.32763903 1.32811598 1.3285951  1.32907639 1.32955985
 1.33004548 1.33053326 1.33102318 1.33151526 1.33200947 1.33250581
 1.33300428 1.33350487 1.33400757 1.33451238 1.33501929 1.3355283
 1.3360394  1.33655258 1.33706784 1.33758516 1.33810456 1.33862601
 1.33914952 1.33967507 1.34020266 1.34073229 1.34126395 1.34179762
 1.34233332 1.34287102 1.34341073 1.34395243 1.34449613 1.34504181
 1.34558947 1.3461391  1.3466907  1.34724426 1.34779977 1.34835723
 1.34891663 1.34947796 1.35004123 1.35060641 1.35117352 1.35174253
 1.35231344 1.35288626 1.35346096 1.35403755 1.35461601 1.35519635
 1.35577856 1.35636262 1.35694854 1.3575363  1.3581259  1.35871734
 1.3593106  1.35990569 1.36050259 1.36110129 1.3617018  1.36230411
 1.3629082  1.36351408 1.36412173 1.36473116 1.36534235 1.36595529
 1.36656999 1.36718643 1.3678046  1.36842451 1.36904615 1.3696695
 1.37029456 1.37092134 1.37154981 1.37217997 1.37281182 1.37344535
 1.37408055 1.37471742 1.37535595 1.37599614 1.37663797 1.37728145
 1.37792656 1.3785733  1.37922166 1.37987163 1.38052322 1.38117641
 1.38183119 1.38248757 1.38314552 1.38380506 1.38446616 1.38512883
 1.38579306 1.38645884 1.38712616 1.38779502 1.38846541 1.38913733
 1.38981077 1.39048572 1.39116217 1.39184012 1.39251957 1.39320051
 1.39388292 1.39456681 1.39525216 1.39593898 1.39662725 1.39731697
 1.39800813 1.39870072 1.39939475 1.40009019 1.40078705 1.40148533
 1.402185   1.40288607 1.40358853 1.40429238 1.4049976  1.40570419
 1.40641215 1.40712146 1.40783213 1.40854415 1.4092575  1.40997218
 1.41068819 1.41140552 1.41212417 1.41284412 1.41356537 1.41428791
 1.41501175 1.41573686 1.41646325 1.41719091 1.41791984 1.41865002
 1.41938144 1.42011412 1.42084803 1.42158317 1.42231953 1.42305712
 1.42379591 1.42453591 1.42527712 1.42601951 1.42676309 1.42750785
 1.42825379 1.42900089 1.42974916 1.43049858 1.43124915 1.43200087
 1.43275372 1.4335077  1.43426281 1.43501904 1.43577637 1.43653482
 1.43729436 1.438055   1.43881672 1.43957953 1.44034341 1.44110836
 1.44187437 1.44264144 1.44340956 1.44417872 1.44494892 1.44572016
 1.44649242 1.4472657  1.44803999 1.44881529 1.4495916  1.4503689
 1.45114719 1.45192646 1.45270671 1.45348793 1.45427012 1.45505327
 1.45583737 1.45662242 1.45740841 1.45819533 1.45898319 1.45977197
 1.46056166 1.46135227 1.46214379 1.4629362  1.46372951 1.46452371
 1.46531879 1.46611474 1.46691157 1.46770926 1.46850781 1.46930721
 1.47010746 1.47090855 1.47171048 1.47251323 1.47331681 1.47412121
 1.47492642 1.47573244 1.47653926 1.47734687 1.47815528 1.47896446
 1.47977443 1.48058517 1.48139667 1.48220894 1.48302196 1.48383573
 1.48465024 1.48546549 1.48628148 1.48709819 1.48791562 1.48873377
 1.48955263 1.4903722  1.49119246 1.49201342 1.49283507 1.4936574
 1.4944804  1.49530408 1.49612843 1.49695343 1.49777909 1.4986054
 1.49943236 1.50025995 1.50108818 1.50191704 1.50274652 1.50357661
 1.50440732 1.50523864 1.50607055 1.50690307 1.50773617 1.50856986
 1.50940413 1.51023897 1.51107439 1.51191037 1.5127469  1.513584
 1.51442164 1.51525982 1.51609854 1.5169378  1.51777758 1.51861789
 1.51945871 1.52030005 1.5211419  1.52198424 1.52282709 1.52367042
 1.52451425 1.52535855 1.52620334 1.52704859 1.52789432 1.5287405
 1.52958714 1.53043424 1.53128178 1.53212976 1.53297818 1.53382704
 1.53467632 1.53552602 1.53637614 1.53722668 1.53807762 1.53892897
 1.53978071 1.54063285 1.54148538 1.54233829 1.54319158 1.54404525
 1.54489929 1.54575369 1.54660845 1.54746357 1.54831903 1.54917485
 1.55003101 1.5508875  1.55174433 1.55260148 1.55345896 1.55431676
 1.55517487 1.55603329 1.55689202 1.55775104 1.55861037 1.55946998
 1.56032988 1.56119007 1.56205053 1.56291127 1.56377227 1.56463354
 1.56549507 1.56635686 1.5672189  1.56808119 1.56894372 1.56980649
 1.57066949 1.57153273 1.57239619 1.57325987 1.57412377 1.57498788
 1.5758522  1.57671673 1.57758146 1.57844638 1.5793115  1.5801768
 1.58104229 1.58190796 1.5827738  1.58363982 1.584506   1.58537235
 1.58623886 1.58710552 1.58797234 1.5888393  1.5897064  1.59057365
 1.59144103 1.59230854 1.59317618 1.59404395 1.59491183 1.59577983
 1.59664794 1.59751616 1.59838449 1.59925291 1.60012144 1.60099005
 1.60185876 1.60272755 1.60359642 1.60446538 1.6053344  1.6062035
 1.60707266 1.60794189 1.60881118 1.60968052 1.61054991 1.61141936
 1.61228885 1.61315838 1.61402795 1.61489755 1.61576719 1.61663685
 1.61750654 1.61837624 1.61924597 1.6201157  1.62098545 1.6218552
 1.62272496 1.62359472 1.62446447 1.62533422 1.62620395 1.62707368
 1.62794338 1.62881307 1.62968273 1.63055237 1.63142197 1.63229154
 1.63316108 1.63403057 1.63490002 1.63576943 1.63663879 1.63750809
 1.63837734 1.63924653 1.64011565 1.64098471 1.64185371 1.64272263
 1.64359148 1.64446025 1.64532894 1.64619755 1.64706607 1.6479345
 1.64880284 1.64967108 1.65053922 1.65140727 1.65227521 1.65314304
 1.65401076 1.65487837 1.65574587 1.65661324 1.6574805  1.65834763
 1.65921463 1.6600815  1.66094824 1.66181485 1.66268132 1.66354764
 1.66441383 1.66527986 1.66614575 1.66701149 1.66787707 1.6687425
 1.66960776 1.67047287 1.67133781 1.67220258 1.67306718 1.67393161
 1.67479587 1.67565995 1.67652385 1.67738756 1.6782511  1.67911444
 1.6799776  1.68084056 1.68170333 1.6825659  1.68342827 1.68429044
 1.6851524  1.68601416 1.68687571 1.68773705 1.68859818 1.68945909
 1.69031978 1.69118025 1.6920405  1.69290052 1.69376032 1.69461989
 1.69547923 1.69633833 1.6971972  1.69805583 1.69891422 1.69977236
 1.70063027 1.70148792 1.70234533 1.70320249 1.7040594  1.70491605
 1.70577244 1.70662858 1.70748445 1.70834006 1.70919541 1.71005049
 1.71090531 1.71175985 1.71261412 1.71346811 1.71432183 1.71517527
 1.71602844 1.71688132 1.71773391 1.71858622 1.71943825 1.72028998
 1.72114143 1.72199258 1.72284344 1.723694   1.72454426 1.72539423
 1.72624389 1.72709325 1.72794231 1.72879106 1.7296395  1.73048763
 1.73133545 1.73218296 1.73303016 1.73387704 1.7347236  1.73556984
 1.73641577 1.73726137 1.73810664 1.7389516  1.73979622 1.74064052
 1.74148449 1.74232813 1.74317143 1.7440144  1.74485704 1.74569934
 1.7465413  1.74738292 1.74822421 1.74906515 1.74990574 1.750746
 1.7515859  1.75242546 1.75326467 1.75410354 1.75494205 1.75578021
 1.75661801 1.75745546 1.75829255 1.75912929 1.75996567 1.76080169
 1.76163735 1.76247265 1.76330758 1.76414215]
t = [1.09451355e+09 1.09451362e+09 1.09451368e+09 1.09451375e+09
 1.09451382e+09 1.09451388e+09 1.09451395e+09 1.09451402e+09
 1.09451408e+09 1.09451415e+09 1.09451422e+09 1.09451429e+09
 1.09451435e+09 1.09451442e+09 1.09451449e+09 1.09451455e+09
 1.09451462e+09 1.09451469e+09 1.09451475e+09 1.09451482e+09
 1.09451489e+09 1.09451495e+09 1.09451502e+09 1.09451509e+09
 1.09451515e+09 1.09451522e+09 1.09451529e+09 1.09451535e+09
 1.09451542e+09 1.09451549e+09 1.09451555e+09 1.09451562e+09
 1.09451569e+09 1.09451576e+09 1.09451582e+09 1.09451589e+09
 1.09451596e+09 1.09451602e+09 1.09451609e+09 1.09451616e+09
 1.09451622e+09 1.09451629e+09 1.09451636e+09 1.09451642e+09
 1.09451649e+09 1.09451656e+09 1.09451662e+09 1.09451669e+09
 1.09451676e+09 1.09451682e+09 1.09451689e+09 1.09451696e+09
 1.09451702e+09 1.09451709e+09 1.09451716e+09 1.09451723e+09
 1.09451729e+09 1.09451736e+09 1.09451743e+09 1.09451749e+09
 1.09451756e+09 1.09451763e+09 1.09451769e+09 1.09451776e+09
 1.09451783e+09 1.09451789e+09 1.09451796e+09 1.09451803e+09
 1.09451809e+09 1.09451816e+09 1.09451823e+09 1.09451829e+09
 1.09451836e+09 1.09451843e+09 1.09451849e+09 1.09451856e+09
 1.09451863e+09 1.09451870e+09 1.09451876e+09 1.09451883e+09
 1.09451890e+09 1.09451896e+09 1.09451903e+09 1.09451910e+09
 1.09451916e+09 1.09451923e+09 1.09451930e+09 1.09451936e+09
 1.09451943e+09 1.09451950e+09 1.09451956e+09 1.09451963e+09
 1.09451970e+09 1.09451976e+09 1.09451983e+09 1.09451990e+09
 1.09451996e+09 1.09452003e+09 1.09452010e+09 1.09452017e+09
 1.09452023e+09 1.09452030e+09 1.09452037e+09 1.09452043e+09
 1.09452050e+09 1.09452057e+09 1.09452063e+09 1.09452070e+09
 1.09452077e+09 1.09452083e+09 1.09452090e+09 1.09452097e+09
 1.09452103e+09 1.09452110e+09 1.09452117e+09 1.09452123e+09
 1.09452130e+09 1.09452137e+09 1.09452143e+09 1.09452150e+09
 1.09452157e+09 1.09452164e+09 1.09452170e+09 1.09452177e+09
 1.09452184e+09 1.09452190e+09 1.09452197e+09 1.09452204e+09
 1.09452210e+09 1.09452217e+09 1.09452224e+09 1.09452230e+09
 1.09452237e+09 1.09452244e+09 1.09452250e+09 1.09452257e+09
 1.09452264e+09 1.09452270e+09 1.09452277e+09 1.09452284e+09
 1.09452290e+09 1.09452297e+09 1.09452304e+09 1.09452310e+09
 1.09452317e+09 1.09452324e+09 1.09452331e+09 1.09452337e+09
 1.09452344e+09 1.09452351e+09 1.09452357e+09 1.09452364e+09
 1.09452371e+09 1.09452377e+09 1.09452384e+09 1.09452391e+09
 1.09452397e+09 1.09452404e+09 1.09452411e+09 1.09452417e+09
 1.09452424e+09 1.09452431e+09 1.09452437e+09 1.09452444e+09
 1.09452451e+09 1.09452457e+09 1.09452464e+09 1.09452471e+09
 1.09452478e+09 1.09452484e+09 1.09452491e+09 1.09452498e+09
 1.09452504e+09 1.09452511e+09 1.09452518e+09 1.09452524e+09
 1.09452531e+09 1.09452538e+09 1.09452544e+09 1.09452551e+09
 1.09452558e+09 1.09452564e+09 1.09452571e+09 1.09452578e+09
 1.09452584e+09 1.09452591e+09 1.09452598e+09 1.09452604e+09
 1.09452611e+09 1.09452618e+09 1.09452625e+09 1.09452631e+09
 1.09452638e+09 1.09452645e+09 1.09452651e+09 1.09452658e+09
 1.09452665e+09 1.09452671e+09 1.09452678e+09 1.09452685e+09
 1.09452691e+09 1.09452698e+09 1.09452705e+09 1.09452711e+09
 1.09452718e+09 1.09452725e+09 1.09452731e+09 1.09452738e+09
 1.09452745e+09 1.09452751e+09 1.09452758e+09 1.09452765e+09
 1.09452772e+09 1.09452778e+09 1.09452785e+09 1.09452792e+09
 1.09452798e+09 1.09452805e+09 1.09452812e+09 1.09452818e+09
 1.09452825e+09 1.09452832e+09 1.09452838e+09 1.09452845e+09
 1.09452852e+09 1.09452858e+09 1.09452865e+09 1.09452872e+09
 1.09452878e+09 1.09452885e+09 1.09452892e+09 1.09452898e+09
 1.09452905e+09 1.09452912e+09 1.09452919e+09 1.09452925e+09
 1.09452932e+09 1.09452939e+09 1.09452945e+09 1.09452952e+09
 1.09452959e+09 1.09452965e+09 1.09452972e+09 1.09452979e+09
 1.09452985e+09 1.09452992e+09 1.09452999e+09 1.09453005e+09
 1.09453012e+09 1.09453019e+09 1.09453025e+09 1.09453032e+09
 1.09453039e+09 1.09453045e+09 1.09453052e+09 1.09453059e+09
 1.09453066e+09 1.09453072e+09 1.09453079e+09 1.09453086e+09
 1.09453092e+09 1.09453099e+09 1.09453106e+09 1.09453112e+09
 1.09453119e+09 1.09453126e+09 1.09453132e+09 1.09453139e+09
 1.09453146e+09 1.09453152e+09 1.09453159e+09 1.09453166e+09
 1.09453172e+09 1.09453179e+09 1.09453186e+09 1.09453192e+09
 1.09453199e+09 1.09453206e+09 1.09453213e+09 1.09453219e+09
 1.09453226e+09 1.09453233e+09 1.09453239e+09 1.09453246e+09
 1.09453253e+09 1.09453259e+09 1.09453266e+09 1.09453273e+09
 1.09453279e+09 1.09453286e+09 1.09453293e+09 1.09453299e+09
 1.09453306e+09 1.09453313e+09 1.09453319e+09 1.09453326e+09
 1.09453333e+09 1.09453339e+09 1.09453346e+09 1.09453353e+09
 1.09453360e+09 1.09453366e+09 1.09453373e+09 1.09453380e+09
 1.09453386e+09 1.09453393e+09 1.09453400e+09 1.09453406e+09
 1.09453413e+09 1.09453420e+09 1.09453426e+09 1.09453433e+09
 1.09453440e+09 1.09453446e+09 1.09453453e+09 1.09453460e+09
 1.09453466e+09 1.09453473e+09 1.09453480e+09 1.09453486e+09
 1.09453493e+09 1.09453500e+09 1.09453507e+09 1.09453513e+09
 1.09453520e+09 1.09453527e+09 1.09453533e+09 1.09453540e+09
 1.09453547e+09 1.09453553e+09 1.09453560e+09 1.09453567e+09
 1.09453573e+09 1.09453580e+09 1.09453587e+09 1.09453593e+09
 1.09453600e+09 1.09453607e+09 1.09453613e+09 1.09453620e+09
 1.09453627e+09 1.09453633e+09 1.09453640e+09 1.09453647e+09
 1.09453654e+09 1.09453660e+09 1.09453667e+09 1.09453674e+09
 1.09453680e+09 1.09453687e+09 1.09453694e+09 1.09453700e+09
 1.09453707e+09 1.09453714e+09 1.09453720e+09 1.09453727e+09
 1.09453734e+09 1.09453740e+09 1.09453747e+09 1.09453754e+09
 1.09453760e+09 1.09453767e+09 1.09453774e+09 1.09453780e+09
 1.09453787e+09 1.09453794e+09 1.09453801e+09 1.09453807e+09
 1.09453814e+09 1.09453821e+09 1.09453827e+09 1.09453834e+09
 1.09453841e+09 1.09453847e+09 1.09453854e+09 1.09453861e+09
 1.09453867e+09 1.09453874e+09 1.09453881e+09 1.09453887e+09
 1.09453894e+09 1.09453901e+09 1.09453907e+09 1.09453914e+09
 1.09453921e+09 1.09453927e+09 1.09453934e+09 1.09453941e+09
 1.09453948e+09 1.09453954e+09 1.09453961e+09 1.09453968e+09
 1.09453974e+09 1.09453981e+09 1.09453988e+09 1.09453994e+09
 1.09454001e+09 1.09454008e+09 1.09454014e+09 1.09454021e+09
 1.09454028e+09 1.09454034e+09 1.09454041e+09 1.09454048e+09
 1.09454054e+09 1.09454061e+09 1.09454068e+09 1.09454074e+09
 1.09454081e+09 1.09454088e+09 1.09454095e+09 1.09454101e+09
 1.09454108e+09 1.09454115e+09 1.09454121e+09 1.09454128e+09
 1.09454135e+09 1.09454141e+09 1.09454148e+09 1.09454155e+09
 1.09454161e+09 1.09454168e+09 1.09454175e+09 1.09454181e+09
 1.09454188e+09 1.09454195e+09 1.09454201e+09 1.09454208e+09
 1.09454215e+09 1.09454221e+09 1.09454228e+09 1.09454235e+09
 1.09454242e+09 1.09454248e+09 1.09454255e+09 1.09454262e+09
 1.09454268e+09 1.09454275e+09 1.09454282e+09 1.09454288e+09
 1.09454295e+09 1.09454302e+09 1.09454308e+09 1.09454315e+09
 1.09454322e+09 1.09454328e+09 1.09454335e+09 1.09454342e+09
 1.09454348e+09 1.09454355e+09 1.09454362e+09 1.09454368e+09
 1.09454375e+09 1.09454382e+09 1.09454389e+09 1.09454395e+09
 1.09454402e+09 1.09454409e+09 1.09454415e+09 1.09454422e+09
 1.09454429e+09 1.09454435e+09 1.09454442e+09 1.09454449e+09
 1.09454455e+09 1.09454462e+09 1.09454469e+09 1.09454475e+09
 1.09454482e+09 1.09454489e+09 1.09454495e+09 1.09454502e+09
 1.09454509e+09 1.09454515e+09 1.09454522e+09 1.09454529e+09
 1.09454535e+09 1.09454542e+09 1.09454549e+09 1.09454556e+09
 1.09454562e+09 1.09454569e+09 1.09454576e+09 1.09454582e+09
 1.09454589e+09 1.09454596e+09 1.09454602e+09 1.09454609e+09
 1.09454616e+09 1.09454622e+09 1.09454629e+09 1.09454636e+09
 1.09454642e+09 1.09454649e+09 1.09454656e+09 1.09454662e+09
 1.09454669e+09 1.09454676e+09 1.09454682e+09 1.09454689e+09
 1.09454696e+09 1.09454703e+09 1.09454709e+09 1.09454716e+09
 1.09454723e+09 1.09454729e+09 1.09454736e+09 1.09454743e+09
 1.09454749e+09 1.09454756e+09 1.09454763e+09 1.09454769e+09
 1.09454776e+09 1.09454783e+09 1.09454789e+09 1.09454796e+09
 1.09454803e+09 1.09454809e+09 1.09454816e+09 1.09454823e+09
 1.09454829e+09 1.09454836e+09 1.09454843e+09 1.09454850e+09
 1.09454856e+09 1.09454863e+09 1.09454870e+09 1.09454876e+09
 1.09454883e+09 1.09454890e+09 1.09454896e+09 1.09454903e+09
 1.09454910e+09 1.09454916e+09 1.09454923e+09 1.09454930e+09
 1.09454936e+09 1.09454943e+09 1.09454950e+09 1.09454956e+09
 1.09454963e+09 1.09454970e+09 1.09454976e+09 1.09454983e+09
 1.09454990e+09 1.09454997e+09 1.09455003e+09 1.09455010e+09
 1.09455017e+09 1.09455023e+09 1.09455030e+09 1.09455037e+09
 1.09455043e+09 1.09455050e+09 1.09455057e+09 1.09455063e+09
 1.09455070e+09 1.09455077e+09 1.09455083e+09 1.09455090e+09
 1.09455097e+09 1.09455103e+09 1.09455110e+09 1.09455117e+09
