name =JUICE_ROI_GAN_3_0_09
flyby = ['2034 SEP 28 18:48:51', '2034 SEP 29 18:48:51']
Observation TW = <SpiceCell dtype = 1, length = 0, size = 2800, card = 8, is_set = 1, adjust = 0, init = 1, base = 94887340886640, data = 94887340886688>
Res(t) = [2.11025651 2.10749805 2.10474756 2.10200503 2.09927045 2.09654381
 2.0938251  2.09111432 2.08841145 2.08571648 2.0830294  2.08035021
 2.0776789  2.07501545 2.07235985 2.06971209 2.06707218 2.06444008
 2.0618158  2.05919933 2.05659065 2.05398975 2.05139663 2.04881127
 2.04623367 2.04366381 2.04110168 2.03854728 2.03600059 2.03346161
 2.03093032 2.0284067  2.02589076 2.02338249 2.02088186 2.01838887
 2.01590351 2.01342578 2.01095565 2.00849311 2.00603817 2.0035908
 2.001151   1.99871875 1.99629405 1.99387688 1.99146724 1.98906511
 1.98667047 1.98428333 1.98190367 1.97953148 1.97716675 1.97480946
 1.97245961 1.97011718 1.96778217 1.96545456 1.96313434 1.96082151
 1.95851604 1.95621793 1.95392717 1.95164375 1.94936765 1.94709886
 1.94483738 1.94258319 1.94033628 1.93809664 1.93586426 1.93363912
 1.93142122 1.92921054 1.92700708 1.92481081 1.92262174 1.92043985
 1.91826512 1.91609755 1.91393712 1.91178383 1.90963765 1.90749859
 1.90536663 1.90324175 1.90112395 1.89901321 1.89690953 1.89481288
 1.89272327 1.89064067 1.88856508 1.88649649 1.88443487 1.88238023
 1.88033255 1.87829182 1.87625802 1.87423116 1.8722112  1.87019814
 1.86819198 1.86619269 1.86420027 1.86221471 1.86023599 1.8582641
 1.85629903 1.85434077 1.8523893  1.85044463 1.84850672 1.84657557
 1.84465118 1.84273352 1.84082259 1.83891837 1.83702086 1.83513003
 1.83324589 1.83136841 1.82949759 1.82763341 1.82577587 1.82392494
 1.82208062 1.8202429  1.81841177 1.8165872  1.8147692  1.81295775
 1.81115283 1.80935444 1.80756256 1.80577719 1.80399831 1.8022259
 1.80045996 1.79870047 1.79694743 1.79520082 1.79346063 1.79172685
 1.78999946 1.78827845 1.78656382 1.78485555 1.78315362 1.78145803
 1.77976877 1.77808582 1.77640917 1.77473881 1.77307472 1.7714169
 1.76976534 1.76812001 1.76648092 1.76484805 1.76322138 1.7616009
 1.75998661 1.75837849 1.75677653 1.75518072 1.75359104 1.75200749
 1.75043004 1.7488587  1.74729345 1.74573427 1.74418116 1.7426341
 1.74109308 1.73955809 1.73802912 1.73650616 1.73498919 1.7334782
 1.73197319 1.73047413 1.72898102 1.72749385 1.7260126  1.72453726
 1.72306782 1.72160428 1.7201466  1.7186948  1.71724885 1.71580874
 1.71437446 1.712946   1.71152335 1.71010649 1.70869542 1.70729012
 1.70589058 1.70449679 1.70310873 1.70172641 1.70034979 1.69897888
 1.69761366 1.69625412 1.69490025 1.69355204 1.69220947 1.69087253
 1.68954121 1.68821551 1.6868954  1.68558088 1.68427194 1.68296856
 1.68167074 1.68037845 1.6790917  1.67781046 1.67653474 1.6752645
 1.67399976 1.67274048 1.67148667 1.6702383  1.66899538 1.66775788
 1.6665258  1.66529912 1.66407783 1.66286193 1.6616514  1.66044623
 1.65924641 1.65805192 1.65686276 1.65567891 1.65450036 1.65332711
 1.65215914 1.65099644 1.64983899 1.64868679 1.64753983 1.6463981
 1.64526157 1.64413025 1.64300412 1.64188317 1.64076739 1.63965676
 1.63855129 1.63745095 1.63635573 1.63526563 1.63418062 1.63310072
 1.63202589 1.63095613 1.62989143 1.62883177 1.62777716 1.62672756
 1.62568299 1.62464342 1.62360884 1.62257924 1.62155461 1.62053494
 1.61952022 1.61851044 1.61750559 1.61650566 1.61551063 1.61452049
 1.61353524 1.61255487 1.61157936 1.61060869 1.60964287 1.60868189
 1.60772572 1.60677436 1.60582779 1.60488602 1.60394903 1.6030168
 1.60208932 1.60116659 1.6002486  1.59933533 1.59842678 1.59752293
 1.59662377 1.59572929 1.59483948 1.59395434 1.59307385 1.59219799
 1.59132677 1.59046016 1.58959817 1.58874077 1.58788796 1.58703973
 1.58619607 1.58535696 1.5845224  1.58369238 1.58286688 1.5820459
 1.58122942 1.58041744 1.57960994 1.57880692 1.57800836 1.57721426
 1.5764246  1.57563938 1.57485858 1.57408219 1.57331021 1.57254262
 1.57177941 1.57102058 1.57026611 1.569516   1.56877022 1.56802878
 1.56729167 1.56655887 1.56583037 1.56510616 1.56438624 1.56367059
 1.5629592  1.56225207 1.56154918 1.56085053 1.5601561  1.55946588
 1.55877987 1.55809806 1.55742043 1.55674697 1.55607768 1.55541254
 1.55475155 1.5540947  1.55344198 1.55279337 1.55214887 1.55150846
 1.55087215 1.55023991 1.54961174 1.54898763 1.54836757 1.54775155
 1.54713957 1.5465316  1.54592764 1.54532769 1.54473173 1.54413975
 1.54355175 1.54296771 1.54238763 1.54181149 1.54123929 1.54067102
 1.54010666 1.53954621 1.53898967 1.53843701 1.53788823 1.53734332
 1.53680228 1.53626509 1.53573174 1.53520223 1.53467654 1.53415467
 1.5336366  1.53312234 1.53261186 1.53210516 1.53160224 1.53110307
 1.53060766 1.53011599 1.52962806 1.52914385 1.52866336 1.52818658
 1.52771349 1.5272441  1.52677839 1.52631635 1.52585797 1.52540325
 1.52495217 1.52450473 1.52406092 1.52362072 1.52318414 1.52275116
 1.52232177 1.52189597 1.52147374 1.52105508 1.52063998 1.52022843
 1.51982042 1.51941594 1.51901499 1.51861755 1.51822361 1.51783318
 1.51744624 1.51706277 1.51668278 1.51630625 1.51593318 1.51556356
 1.51519737 1.51483462 1.51447529 1.51411937 1.51376685 1.51341774
 1.51307201 1.51272966 1.51239069 1.51205508 1.51172282 1.51139391
 1.51106834 1.5107461  1.51042718 1.51011158 1.50979929 1.50949029
 1.50918458 1.50888216 1.508583   1.50828712 1.50799449 1.50770511
 1.50741897 1.50713607 1.50685639 1.50657993 1.50630668 1.50603663
 1.50576978 1.50550611 1.50524562 1.50498829 1.50473414 1.50448313
 1.50423527 1.50399056 1.50374897 1.5035105  1.50327515 1.50304291
 1.50281377 1.50258772 1.50236476 1.50214487 1.50192805 1.50171429
 1.50150359 1.50129594 1.50109132 1.50088973 1.50069117 1.50049562
 1.50030308 1.50011355 1.499927   1.49974345 1.49956287 1.49938526
 1.49921062 1.49903893 1.49887019 1.4987044  1.49854153 1.4983816
 1.49822458 1.49807048 1.49791928 1.49777098 1.49762557 1.49748304
 1.49734339 1.49720661 1.49707268 1.49694162 1.4968134  1.49668802
 1.49656547 1.49644575 1.49632885 1.49621476 1.49610347 1.49599498
 1.49588928 1.49578637 1.49568623 1.49558886 1.49549425 1.4954024
 1.4953133  1.49522694 1.49514331 1.49506241 1.49498423 1.49490877
 1.49483601 1.49476596 1.49469859 1.49463392 1.49457192 1.4945126
 1.49445594 1.49440195 1.49435061 1.49430191 1.49425585 1.49421243
 1.49417163 1.49413346 1.49409789 1.49406493 1.49403458 1.49400681
 1.49398164 1.49395904 1.49393902 1.49392156 1.49390667 1.49389432
 1.49388453 1.49387728 1.49387257 1.49387038 1.49387071 1.49387356
 1.49387892 1.49388679 1.49389715 1.49391    1.49392533 1.49394314
 1.49396343 1.49398618 1.49401138 1.49403905 1.49406915 1.4941017
 1.49413669 1.4941741  1.49421393 1.49425618 1.49430084 1.4943479
 1.49439736 1.49444921 1.49450345 1.49456006 1.49461905 1.49468041
 1.49474413 1.4948102  1.49487863 1.49494939 1.4950225  1.49509793
 1.4951757  1.49525578 1.49533817 1.49542288 1.49550988 1.49559919
 1.49569078 1.49578466 1.49588082 1.49597925 1.49607995 1.49618291
 1.49628812 1.49639559 1.4965053  1.49661725 1.49673144 1.49684785
 1.49696648 1.49708733 1.49721039 1.49733566 1.49746313 1.49759279
 1.49772464 1.49785867 1.49799488 1.49813326 1.49827381 1.49841652
 1.49856139 1.4987084  1.49885757 1.49900887 1.4991623  1.49931786
 1.49947555 1.49963536 1.49979727 1.4999613  1.50012742 1.50029565
 1.50046596 1.50063836 1.50081285 1.5009894  1.50116803 1.50134873
 1.50153148 1.50171629 1.50190315 1.50209205 1.50228299 1.50247597
 1.50267097 1.502868   1.50306705 1.50326812 1.50347119 1.50367627
 1.50388334 1.50409241 1.50430347 1.50451651 1.50473153 1.50494853
 1.50516749 1.50538842 1.50561131 1.50583615 1.50606294 1.50629168
 1.50652236 1.50675497 1.50698951 1.50722597 1.50746436 1.50770466
 1.50794688 1.508191   1.50843702 1.50868494 1.50893475 1.50918645
 1.50944003 1.50969549 1.50995282 1.51021202 1.51047308 1.51073601
 1.51100079 1.51126742 1.51153589 1.51180621 1.51207836 1.51235234
 1.51262816 1.51290579 1.51318524 1.51346651 1.51374959 1.51403447
 1.51432115 1.51460963 1.51489991 1.51519196 1.51548581 1.51578143
 1.51607882 1.51637798 1.51667891 1.51698161 1.51728605 1.51759225
 1.5179002  1.5182099  1.51852133 1.5188345  1.5191494  1.51946603
 1.51978438 1.52010445 1.52042623 1.52074973 1.52107493 1.52140183
 1.52173043 1.52206073 1.52239271 1.52272638 1.52306173 1.52339876
 1.52373747 1.52407784 1.52441988 1.52476358 1.52510893 1.52545595
 1.52580461 1.52615491 1.52650686 1.52686044 1.52721566 1.52757251
 1.52793099 1.52829108 1.5286528  1.52901613 1.52938107 1.52974761
 1.53011576 1.53048551 1.53085685 1.53122979 1.53160431 1.53198042
 1.53235811 1.53273737 1.5331182  1.53350061 1.53388458 1.53427011
 1.5346572  1.53504585 1.53543604 1.53582778 1.53622107 1.53661589
 1.53701225 1.53741015 1.53780957 1.53821052 1.53861299 1.53901698
 1.53942248 1.53982949 1.54023802 1.54064804 1.54105957 1.54147259
 1.54188711 1.54230312 1.54272062 1.5431396  1.54356006 1.543982
 1.54440541 1.54483029 1.54525663 1.54568444 1.54611372 1.54654444
 1.54697662 1.54741025 1.54784533 1.54828185 1.54871981 1.54915921
 1.54960004 1.55004231 1.550486   1.55093111 1.55137765 1.5518256
 1.55227497 1.55272574 1.55317793 1.55363152 1.55408652 1.55454291
 1.5550007  1.55545988 1.55592045 1.55638241 1.55684575 1.55731047
 1.55777657 1.55824404 1.55871288 1.55918309 1.55965467 1.56012761
 1.56060191 1.56107757 1.56155458 1.56203294 1.56251264 1.5629937
 1.56347609 1.56395982 1.56444489 1.56493129 1.56541903 1.56590809
 1.56639847 1.56689018 1.5673832  1.56787754 1.5683732  1.56887017
 1.56936844 1.56986802 1.5703689  1.57087108 1.57137456 1.57187933
 1.57238539 1.57289275 1.57340138 1.57391131 1.57442251 1.57493499
 1.57544875 1.57596378 1.57648007 1.57699764 1.57751647 1.57803657
 1.57855792 1.57908054 1.5796044  1.58012952 1.58065589 1.58118351
 1.58171237 1.58224247 1.58277382 1.5833064  1.58384021 1.58437526
 1.58491154 1.58544904 1.58598777 1.58652773 1.5870689  1.58761129
 1.5881549  1.58869972 1.58924575 1.58979299 1.59034143 1.59089108
 1.59144193 1.59199398 1.59254722 1.59310166 1.5936573  1.59421412
 1.59477213 1.59533133 1.5958917  1.59645326 1.597016   1.59757992
 1.59814501 1.59871127 1.5992787  1.5998473  1.60041707 1.600988
 1.60156009 1.60213334 1.60270775 1.60328331 1.60386003 1.6044379
 1.60501691 1.60559707 1.60617838 1.60676083 1.60734442 1.60792915
 1.60851502 1.60910202 1.60969015 1.61027942 1.61086981 1.61146133
 1.61205398 1.61264774 1.61324263 1.61383864 1.61443577 1.61503401
 1.61563336 1.61623382 1.6168354  1.61743808 1.61804187 1.61864676
 1.61925276 1.61985985 1.62046805 1.62107734 1.62168772 1.6222992
 1.62291177 1.62352543 1.62414018 1.62475601 1.62537293 1.62599093
 1.62661001 1.62723017 1.62785141 1.62847373 1.62909712 1.62972158
 1.63034711 1.63097371 1.63160138 1.63223012 1.63285992 1.63349078
 1.6341227  1.63475569 1.63538973 1.63602483 1.63666098 1.63729819
 1.63793645 1.63857576 1.63921611 1.63985752 1.64049997 1.64114346
 1.641788   1.64243358 1.6430802  1.64372786 1.64437655 1.64502628
 1.64567705 1.64632884 1.64698167 1.64763553 1.64829042 1.64894633
 1.64960327 1.65026123 1.65092022 1.65158023 1.65224126 1.65290331
 1.65356637 1.65423046 1.65489556 1.65556167 1.65622879 1.65689693
 1.65756607 1.65823623 1.65890739 1.65957956 1.66025274 1.66092691
 1.66160209 1.66227828 1.66295546 1.66363364 1.66431282 1.664993
 1.66567417 1.66635634 1.6670395  1.66772366 1.6684088  1.66909494
 1.66978206 1.67047018 1.67115928 1.67184936 1.67254043 1.67323249
 1.67392553 1.67461955 1.67531455 1.67601053]
t = [1.09637745e+09 1.09637751e+09 1.09637758e+09 1.09637764e+09
 1.09637770e+09 1.09637777e+09 1.09637783e+09 1.09637789e+09
 1.09637796e+09 1.09637802e+09 1.09637808e+09 1.09637815e+09
 1.09637821e+09 1.09637827e+09 1.09637834e+09 1.09637840e+09
 1.09637846e+09 1.09637852e+09 1.09637859e+09 1.09637865e+09
 1.09637871e+09 1.09637878e+09 1.09637884e+09 1.09637890e+09
 1.09637897e+09 1.09637903e+09 1.09637909e+09 1.09637916e+09
 1.09637922e+09 1.09637928e+09 1.09637935e+09 1.09637941e+09
 1.09637947e+09 1.09637954e+09 1.09637960e+09 1.09637966e+09
 1.09637973e+09 1.09637979e+09 1.09637985e+09 1.09637992e+09
 1.09637998e+09 1.09638004e+09 1.09638011e+09 1.09638017e+09
 1.09638023e+09 1.09638029e+09 1.09638036e+09 1.09638042e+09
 1.09638048e+09 1.09638055e+09 1.09638061e+09 1.09638067e+09
 1.09638074e+09 1.09638080e+09 1.09638086e+09 1.09638093e+09
 1.09638099e+09 1.09638105e+09 1.09638112e+09 1.09638118e+09
 1.09638124e+09 1.09638131e+09 1.09638137e+09 1.09638143e+09
 1.09638150e+09 1.09638156e+09 1.09638162e+09 1.09638169e+09
 1.09638175e+09 1.09638181e+09 1.09638188e+09 1.09638194e+09
 1.09638200e+09 1.09638206e+09 1.09638213e+09 1.09638219e+09
 1.09638225e+09 1.09638232e+09 1.09638238e+09 1.09638244e+09
 1.09638251e+09 1.09638257e+09 1.09638263e+09 1.09638270e+09
 1.09638276e+09 1.09638282e+09 1.09638289e+09 1.09638295e+09
 1.09638301e+09 1.09638308e+09 1.09638314e+09 1.09638320e+09
 1.09638327e+09 1.09638333e+09 1.09638339e+09 1.09638346e+09
 1.09638352e+09 1.09638358e+09 1.09638365e+09 1.09638371e+09
 1.09638377e+09 1.09638383e+09 1.09638390e+09 1.09638396e+09
 1.09638402e+09 1.09638409e+09 1.09638415e+09 1.09638421e+09
 1.09638428e+09 1.09638434e+09 1.09638440e+09 1.09638447e+09
 1.09638453e+09 1.09638459e+09 1.09638466e+09 1.09638472e+09
 1.09638478e+09 1.09638485e+09 1.09638491e+09 1.09638497e+09
 1.09638504e+09 1.09638510e+09 1.09638516e+09 1.09638523e+09
 1.09638529e+09 1.09638535e+09 1.09638542e+09 1.09638548e+09
 1.09638554e+09 1.09638560e+09 1.09638567e+09 1.09638573e+09
 1.09638579e+09 1.09638586e+09 1.09638592e+09 1.09638598e+09
 1.09638605e+09 1.09638611e+09 1.09638617e+09 1.09638624e+09
 1.09638630e+09 1.09638636e+09 1.09638643e+09 1.09638649e+09
 1.09638655e+09 1.09638662e+09 1.09638668e+09 1.09638674e+09
 1.09638681e+09 1.09638687e+09 1.09638693e+09 1.09638700e+09
 1.09638706e+09 1.09638712e+09 1.09638719e+09 1.09638725e+09
 1.09638731e+09 1.09638737e+09 1.09638744e+09 1.09638750e+09
 1.09638756e+09 1.09638763e+09 1.09638769e+09 1.09638775e+09
 1.09638782e+09 1.09638788e+09 1.09638794e+09 1.09638801e+09
 1.09638807e+09 1.09638813e+09 1.09638820e+09 1.09638826e+09
 1.09638832e+09 1.09638839e+09 1.09638845e+09 1.09638851e+09
 1.09638858e+09 1.09638864e+09 1.09638870e+09 1.09638877e+09
 1.09638883e+09 1.09638889e+09 1.09638895e+09 1.09638902e+09
 1.09638908e+09 1.09638914e+09 1.09638921e+09 1.09638927e+09
 1.09638933e+09 1.09638940e+09 1.09638946e+09 1.09638952e+09
 1.09638959e+09 1.09638965e+09 1.09638971e+09 1.09638978e+09
 1.09638984e+09 1.09638990e+09 1.09638997e+09 1.09639003e+09
 1.09639009e+09 1.09639016e+09 1.09639022e+09 1.09639028e+09
 1.09639035e+09 1.09639041e+09 1.09639047e+09 1.09639054e+09
 1.09639060e+09 1.09639066e+09 1.09639072e+09 1.09639079e+09
 1.09639085e+09 1.09639091e+09 1.09639098e+09 1.09639104e+09
 1.09639110e+09 1.09639117e+09 1.09639123e+09 1.09639129e+09
 1.09639136e+09 1.09639142e+09 1.09639148e+09 1.09639155e+09
 1.09639161e+09 1.09639167e+09 1.09639174e+09 1.09639180e+09
 1.09639186e+09 1.09639193e+09 1.09639199e+09 1.09639205e+09
 1.09639212e+09 1.09639218e+09 1.09639224e+09 1.09639231e+09
 1.09639237e+09 1.09639243e+09 1.09639249e+09 1.09639256e+09
 1.09639262e+09 1.09639268e+09 1.09639275e+09 1.09639281e+09
 1.09639287e+09 1.09639294e+09 1.09639300e+09 1.09639306e+09
 1.09639313e+09 1.09639319e+09 1.09639325e+09 1.09639332e+09
 1.09639338e+09 1.09639344e+09 1.09639351e+09 1.09639357e+09
 1.09639363e+09 1.09639370e+09 1.09639376e+09 1.09639382e+09
 1.09639389e+09 1.09639395e+09 1.09639401e+09 1.09639408e+09
 1.09639414e+09 1.09639420e+09 1.09639426e+09 1.09639433e+09
 1.09639439e+09 1.09639445e+09 1.09639452e+09 1.09639458e+09
 1.09639464e+09 1.09639471e+09 1.09639477e+09 1.09639483e+09
 1.09639490e+09 1.09639496e+09 1.09639502e+09 1.09639509e+09
 1.09639515e+09 1.09639521e+09 1.09639528e+09 1.09639534e+09
 1.09639540e+09 1.09639547e+09 1.09639553e+09 1.09639559e+09
 1.09639566e+09 1.09639572e+09 1.09639578e+09 1.09639585e+09
 1.09639591e+09 1.09639597e+09 1.09639603e+09 1.09639610e+09
 1.09639616e+09 1.09639622e+09 1.09639629e+09 1.09639635e+09
 1.09639641e+09 1.09639648e+09 1.09639654e+09 1.09639660e+09
 1.09639667e+09 1.09639673e+09 1.09639679e+09 1.09639686e+09
 1.09639692e+09 1.09639698e+09 1.09639705e+09 1.09639711e+09
 1.09639717e+09 1.09639724e+09 1.09639730e+09 1.09639736e+09
 1.09639743e+09 1.09639749e+09 1.09639755e+09 1.09639762e+09
 1.09639768e+09 1.09639774e+09 1.09639780e+09 1.09639787e+09
 1.09639793e+09 1.09639799e+09 1.09639806e+09 1.09639812e+09
 1.09639818e+09 1.09639825e+09 1.09639831e+09 1.09639837e+09
 1.09639844e+09 1.09639850e+09 1.09639856e+09 1.09639863e+09
 1.09639869e+09 1.09639875e+09 1.09639882e+09 1.09639888e+09
 1.09639894e+09 1.09639901e+09 1.09639907e+09 1.09639913e+09
 1.09639920e+09 1.09639926e+09 1.09639932e+09 1.09639939e+09
 1.09639945e+09 1.09639951e+09 1.09639957e+09 1.09639964e+09
 1.09639970e+09 1.09639976e+09 1.09639983e+09 1.09639989e+09
 1.09639995e+09 1.09640002e+09 1.09640008e+09 1.09640014e+09
 1.09640021e+09 1.09640027e+09 1.09640033e+09 1.09640040e+09
 1.09640046e+09 1.09640052e+09 1.09640059e+09 1.09640065e+09
 1.09640071e+09 1.09640078e+09 1.09640084e+09 1.09640090e+09
 1.09640097e+09 1.09640103e+09 1.09640109e+09 1.09640116e+09
 1.09640122e+09 1.09640128e+09 1.09640134e+09 1.09640141e+09
 1.09640147e+09 1.09640153e+09 1.09640160e+09 1.09640166e+09
 1.09640172e+09 1.09640179e+09 1.09640185e+09 1.09640191e+09
 1.09640198e+09 1.09640204e+09 1.09640210e+09 1.09640217e+09
 1.09640223e+09 1.09640229e+09 1.09640236e+09 1.09640242e+09
 1.09640248e+09 1.09640255e+09 1.09640261e+09 1.09640267e+09
 1.09640274e+09 1.09640280e+09 1.09640286e+09 1.09640293e+09
 1.09640299e+09 1.09640305e+09 1.09640311e+09 1.09640318e+09
 1.09640324e+09 1.09640330e+09 1.09640337e+09 1.09640343e+09
 1.09640349e+09 1.09640356e+09 1.09640362e+09 1.09640368e+09
 1.09640375e+09 1.09640381e+09 1.09640387e+09 1.09640394e+09
 1.09640400e+09 1.09640406e+09 1.09640413e+09 1.09640419e+09
 1.09640425e+09 1.09640432e+09 1.09640438e+09 1.09640444e+09
 1.09640451e+09 1.09640457e+09 1.09640463e+09 1.09640470e+09
 1.09640476e+09 1.09640482e+09 1.09640488e+09 1.09640495e+09
 1.09640501e+09 1.09640507e+09 1.09640514e+09 1.09640520e+09
 1.09640526e+09 1.09640533e+09 1.09640539e+09 1.09640545e+09
 1.09640552e+09 1.09640558e+09 1.09640564e+09 1.09640571e+09
 1.09640577e+09 1.09640583e+09 1.09640590e+09 1.09640596e+09
 1.09640602e+09 1.09640609e+09 1.09640615e+09 1.09640621e+09
 1.09640628e+09 1.09640634e+09 1.09640640e+09 1.09640647e+09
 1.09640653e+09 1.09640659e+09 1.09640665e+09 1.09640672e+09
 1.09640678e+09 1.09640684e+09 1.09640691e+09 1.09640697e+09
 1.09640703e+09 1.09640710e+09 1.09640716e+09 1.09640722e+09
 1.09640729e+09 1.09640735e+09 1.09640741e+09 1.09640748e+09
 1.09640754e+09 1.09640760e+09 1.09640767e+09 1.09640773e+09
 1.09640779e+09 1.09640786e+09 1.09640792e+09 1.09640798e+09
 1.09640805e+09 1.09640811e+09 1.09640817e+09 1.09640824e+09
 1.09640830e+09 1.09640836e+09 1.09640842e+09 1.09640849e+09
 1.09640855e+09 1.09640861e+09 1.09640868e+09 1.09640874e+09
 1.09640880e+09 1.09640887e+09 1.09640893e+09 1.09640899e+09
 1.09640906e+09 1.09640912e+09 1.09640918e+09 1.09640925e+09
 1.09640931e+09 1.09640937e+09 1.09640944e+09 1.09640950e+09
 1.09640956e+09 1.09640963e+09 1.09640969e+09 1.09640975e+09
 1.09640982e+09 1.09640988e+09 1.09640994e+09 1.09641000e+09
 1.09641007e+09 1.09641013e+09 1.09641019e+09 1.09641026e+09
 1.09641032e+09 1.09641038e+09 1.09641045e+09 1.09641051e+09
 1.09641057e+09 1.09641064e+09 1.09641070e+09 1.09641076e+09
 1.09641083e+09 1.09641089e+09 1.09641095e+09 1.09641102e+09
 1.09641108e+09 1.09641114e+09 1.09641121e+09 1.09641127e+09
 1.09641133e+09 1.09641140e+09 1.09641146e+09 1.09641152e+09
 1.09641159e+09 1.09641165e+09 1.09641171e+09 1.09641177e+09
 1.09641184e+09 1.09641190e+09 1.09641196e+09 1.09641203e+09
 1.09641209e+09 1.09641215e+09 1.09641222e+09 1.09641228e+09
 1.09641234e+09 1.09641241e+09 1.09641247e+09 1.09641253e+09
 1.09641260e+09 1.09641266e+09 1.09641272e+09 1.09641279e+09
 1.09641285e+09 1.09641291e+09 1.09641298e+09 1.09641304e+09
