name =JUICE_ROI_GAN_6_3_01
flyby = ['2034 NOV 18 09:58:51', '2034 NOV 19 09:58:51']
Observation TW = <SpiceCell dtype = 1, length = 0, size = 3200, card = 12, is_set = 1, adjust = 0, init = 1, base = 94488558162976, data = 94488558163024>
Res(t) = [1.02820841 1.0267739  1.02533973 1.02390593 1.02247248 1.0210394
 1.01960671 1.0181744  1.01674248 1.01531097 1.01387987 1.01244919
 1.01101893 1.00958912 1.00815974 1.00673082 1.00530236 1.00387437
 1.00244686 1.00101984 0.99959331 0.99816728 0.99674177 0.99531677
 0.99389231 0.99246839 0.99104501 0.98962219 0.98819994 0.98677826
 0.98535716 0.98393665 0.98251675 0.98109745 0.97967878 0.97826073
 0.97684332 0.97542655 0.97401044 0.972595   0.97118023 0.96976614
 0.96835275 0.96694006 0.96552808 0.96411682 0.96270629 0.96129649
 0.95988745 0.95847917 0.95707166 0.95566492 0.95425897 0.95285381
 0.95144947 0.95004594 0.94864323 0.94724136 0.94584034 0.94444017
 0.94304086 0.94164243 0.94024489 0.93884824 0.93745249 0.93605766
 0.93466375 0.93327077 0.93187874 0.93048766 0.92909755 0.92770841
 0.92632025 0.92493309 0.92354693 0.92216179 0.92077767 0.91939458
 0.91801254 0.91663156 0.91525164 0.91387279 0.91249503 0.91111836
 0.9097428  0.90836836 0.90699504 0.90562286 0.90425182 0.90288194
 0.90151323 0.9001457  0.89877935 0.89741421 0.89605027 0.89468755
 0.89332606 0.89196581 0.89060681 0.88924908 0.88789261 0.88653742
 0.88518353 0.88383094 0.88247966 0.8811297  0.87978108 0.87843381
 0.87708788 0.87574333 0.87440015 0.87305835 0.87171795 0.87037896
 0.86904139 0.86770524 0.86637053 0.86503728 0.86370548 0.86237515
 0.8610463  0.85971895 0.85839309 0.85706875 0.85574593 0.85442465
 0.85310491 0.85178672 0.85047009 0.84915505 0.84784158 0.84652972
 0.84521946 0.84391082 0.8426038  0.84129843 0.8399947  0.83869263
 0.83739223 0.83609351 0.83479648 0.83350115 0.83220754 0.83091564
 0.82962548 0.82833706 0.82705039 0.82576548 0.82448235 0.823201
 0.82192145 0.8206437  0.81936777 0.81809366 0.81682139 0.81555096
 0.81428239 0.81301568 0.81175086 0.81048792 0.80922687 0.80796773
 0.80671052 0.80545522 0.80420187 0.80295046 0.80170102 0.80045354
 0.79920803 0.79796452 0.79672301 0.7954835  0.79424601 0.79301055
 0.79177713 0.79054576 0.78931644 0.7880892  0.78686403 0.78564095
 0.78441997 0.78320109 0.78198434 0.78076971 0.77955721 0.77834687
 0.77713868 0.77593265 0.77472881 0.77352715 0.77232768 0.77113042
 0.76993537 0.76874255 0.76755196 0.76636361 0.76517751 0.76399368
 0.76281212 0.76163284 0.76045585 0.75928115 0.75810877 0.75693871
 0.75577097 0.75460557 0.75344251 0.75228181 0.75112347 0.74996751
 0.74881392 0.74766273 0.74651394 0.74536756 0.7442236  0.74308206
 0.74194296 0.7408063  0.7396721  0.73854036 0.73741109 0.7362843
 0.73515999 0.73403819 0.73291889 0.73180211 0.73068784 0.72957611
 0.72846692 0.72736028 0.72625619 0.72515467 0.72405573 0.72295936
 0.72186558 0.7207744  0.71968583 0.71859987 0.71751654 0.71643583
 0.71535777 0.71428235 0.71320958 0.71213948 0.71107205 0.7100073
 0.70894523 0.70788585 0.70682918 0.70577522 0.70472397 0.70367545
 0.70262966 0.70158661 0.7005463  0.69950875 0.69847397 0.69744195
 0.69641271 0.69538625 0.69436258 0.69334171 0.69232365 0.6913084
 0.69029597 0.68928636 0.68827959 0.68727566 0.68627458 0.68527635
 0.68428099 0.68328849 0.68229886 0.68131212 0.68032827 0.67934731
 0.67836925 0.6773941  0.67642186 0.67545255 0.67448616 0.6735227
 0.67256218 0.67160461 0.67065    0.66969834 0.66874964 0.66780392
 0.66686117 0.6659214  0.66498462 0.66405084 0.66312006 0.66219228
 0.66126751 0.66034576 0.65942703 0.65851134 0.65759867 0.65668905
 0.65578247 0.65487894 0.65397846 0.65308105 0.6521867  0.65129543
 0.65040723 0.64952211 0.64864008 0.64776114 0.6468853  0.64601256
 0.64514293 0.64427641 0.643413   0.64255272 0.64169556 0.64084153
 0.63999064 0.63914288 0.63829827 0.63745681 0.6366185  0.63578335
 0.63495136 0.63412254 0.63329689 0.63247441 0.63165511 0.63083899
 0.63002606 0.62921632 0.62840977 0.62760643 0.62680628 0.62600934
 0.62521561 0.62442509 0.62363779 0.62285371 0.62207286 0.62129523
 0.62052083 0.61974967 0.61898175 0.61821707 0.61745563 0.61669744
 0.6159425  0.61519081 0.61444238 0.61369721 0.6129553  0.61221666
 0.61148129 0.61074919 0.61002036 0.60929481 0.60857254 0.60785355
 0.60713785 0.60642544 0.60571631 0.60501047 0.60430794 0.60360869
 0.60291275 0.60222011 0.60153077 0.60084474 0.60016201 0.5994826
 0.59880649 0.5981337  0.59746423 0.59679808 0.59613524 0.59547572
 0.59481953 0.59416666 0.59351712 0.59287091 0.59222802 0.59158847
 0.59095224 0.59031936 0.5896898  0.58906358 0.5884407  0.58782116
 0.58720496 0.5865921  0.58598257 0.5853764  0.58477356 0.58417407
 0.58357793 0.58298513 0.58239568 0.58180958 0.58122682 0.58064742
 0.58007136 0.57949866 0.5789293  0.5783633  0.57780065 0.57724135
 0.5766854  0.5761328  0.57558356 0.57503767 0.57449513 0.57395594
 0.57342011 0.57288763 0.57235851 0.57183274 0.57131032 0.57079125
 0.57027554 0.56976317 0.56925416 0.5687485  0.5682462  0.56774724
 0.56725163 0.56675937 0.56627046 0.5657849  0.56530269 0.56482383
 0.56434831 0.56387613 0.56340731 0.56294182 0.56247968 0.56202088
 0.56156542 0.5611133  0.56066452 0.56021908 0.55977697 0.5593382
 0.55890277 0.55847066 0.55804189 0.55761645 0.55719433 0.55677555
 0.55636009 0.55594795 0.55553914 0.55513365 0.55473147 0.55433262
 0.55393708 0.55354485 0.55315594 0.55277034 0.55238805 0.55200906
 0.55163338 0.551261   0.55089192 0.55052614 0.55016366 0.54980447
 0.54944858 0.54909597 0.54874665 0.54840062 0.54805787 0.5477184
 0.54738221 0.5470493  0.54671966 0.54639329 0.54607019 0.54575035
 0.54543378 0.54512047 0.54481042 0.54450362 0.54420008 0.54389978
 0.54360273 0.54330893 0.54301836 0.54273104 0.54244695 0.54216609
 0.54188847 0.54161406 0.54134289 0.54107493 0.54081019 0.54054866
 0.54029034 0.54003523 0.53978332 0.53953462 0.53928911 0.5390468
 0.53880767 0.53857174 0.53833898 0.53810941 0.53788302 0.53765979
 0.53743974 0.53722285 0.53700913 0.53679856 0.53659115 0.53638689
 0.53618578 0.53598781 0.53579298 0.53560129 0.53541273 0.53522729
 0.53504499 0.5348658  0.53468973 0.53451677 0.53434692 0.53418018
 0.53401653 0.53385598 0.53369853 0.53354416 0.53339287 0.53324467
 0.53309954 0.53295748 0.53281849 0.53268256 0.53254969 0.53241988
 0.53229311 0.53216939 0.53204871 0.53193107 0.53181646 0.53170488
 0.53159632 0.53149078 0.53138825 0.53128873 0.53119222 0.5310987
 0.53100819 0.53092066 0.53083612 0.53075457 0.53067598 0.53060038
 0.53052774 0.53045806 0.53039134 0.53032757 0.53026676 0.53020888
 0.53015395 0.53010195 0.53005287 0.53000673 0.5299635  0.52992319
 0.52988578 0.52985128 0.52981968 0.52979098 0.52976516 0.52974223
 0.52972218 0.529705   0.52969069 0.52967925 0.52967066 0.52966493
 0.52966205 0.52966201 0.52966481 0.52967045 0.52967891 0.52969019
 0.5297043  0.52972121 0.52974094 0.52976346 0.52978879 0.5298169
 0.5298478  0.52988148 0.52991794 0.52995717 0.52999916 0.53004392
 0.53009143 0.53014168 0.53019469 0.53025043 0.5303089  0.5303701
 0.53043402 0.53050066 0.53057002 0.53064207 0.53071683 0.53079429
 0.53087443 0.53095726 0.53104277 0.53113095 0.5312218  0.53131531
 0.53141148 0.5315103  0.53161177 0.53171588 0.53182262 0.53193199
 0.53204399 0.5321586  0.53227583 0.53239567 0.5325181  0.53264314
 0.53277076 0.53290097 0.53303377 0.53316913 0.53330706 0.53344756
 0.53359062 0.53373622 0.53388438 0.53403507 0.5341883  0.53434406
 0.53450234 0.53466315 0.53482646 0.53499229 0.53516061 0.53533143
 0.53550474 0.53568054 0.53585882 0.53603957 0.53622279 0.53640847
 0.53659662 0.53678721 0.53698025 0.53717573 0.53737364 0.53757398
 0.53777675 0.53798194 0.53818954 0.53839954 0.53861195 0.53882675
 0.53904395 0.53926353 0.53948549 0.53970982 0.53993652 0.54016559
 0.54039701 0.54063078 0.5408669  0.54110536 0.54134616 0.54158929
 0.54183474 0.5420825  0.54233259 0.54258498 0.54283967 0.54309665
 0.54335593 0.5436175  0.54388135 0.54414747 0.54441586 0.54468651
 0.54495942 0.54523459 0.545512   0.54579166 0.54607355 0.54635767
 0.54664402 0.54693259 0.54722338 0.54751637 0.54781157 0.54810897
 0.54840856 0.54871034 0.54901431 0.54932045 0.54962876 0.54993924
 0.55025188 0.55056668 0.55088363 0.55120273 0.55152397 0.55184734
 0.55217284 0.55250047 0.55283022 0.55316208 0.55349605 0.55383213
 0.5541703  0.55451057 0.55485293 0.55519737 0.55554388 0.55589247
 0.55624313 0.55659585 0.55695063 0.55730747 0.55766635 0.55802727
 0.55839023 0.55875522 0.55912224 0.55949128 0.55986234 0.56023541
 0.56061049 0.56098757 0.56136665 0.56174772 0.56213078 0.56251582
 0.56290283 0.56329183 0.56368279 0.56407571 0.56447059 0.56486742
 0.5652662  0.56566693 0.56606959 0.56647419 0.56688072 0.56728917
 0.56769955 0.56811184 0.56852603 0.56894214 0.56936014 0.56978004
 0.57020184 0.57062552 0.57105108 0.57147852 0.57190783 0.57233901
 0.57277206 0.57320697 0.57364373 0.57408234 0.57452279 0.57496509
 0.57540923 0.57585519 0.57630299 0.57675261 0.57720405 0.5776573
 0.57811236 0.57856923 0.5790279  0.57948837 0.57995063 0.58041468
 0.58088052 0.58134813 0.58181752 0.58228868 0.58276161 0.58323631
 0.58371276 0.58419096 0.58467092 0.58515262 0.58563607 0.58612125
 0.58660817 0.58709682 0.58758719 0.58807929 0.58857311 0.58906863
 0.58956587 0.59006482 0.59056546 0.59106781 0.59157185 0.59207758
 0.59258499 0.59309409 0.59360487 0.59411732 0.59463144 0.59514723
 0.59566468 0.5961838  0.59670457 0.59722699 0.59775106 0.59827677
 0.59880413 0.59933312 0.59986375 0.60039601 0.60092989 0.6014654
 0.60200253 0.60254127 0.60308163 0.60362359 0.60416716 0.60471234
 0.60525911 0.60580747 0.60635743 0.60690898 0.60746211 0.60801682
 0.60857311 0.60913098 0.60969042 0.61025142 0.610814   0.61137813
 0.61194382 0.61251107 0.61307987 0.61365022 0.61422211 0.61479555
 0.61537053 0.61594704 0.61652509 0.61710466 0.61768577 0.6182684
 0.61885255 0.61943822 0.6200254  0.6206141  0.62120431 0.62179602
 0.62238924 0.62298396 0.62358017 0.62417788 0.62477709 0.62537778
 0.62597996 0.62658363 0.62718877 0.6277954  0.6284035  0.62901308
 0.62962412 0.63023663 0.63085061 0.63146605 0.63208296 0.63270132
 0.63332113 0.6339424  0.63456512 0.63518928 0.63581489 0.63644195
 0.63707044 0.63770037 0.63833174 0.63896454 0.63959878 0.64023444
 0.64087152 0.64151004 0.64214997 0.64279132 0.64343409 0.64407828
 0.64472387 0.64537088 0.6460193  0.64666912 0.64732035 0.64797298
 0.64862701 0.64928244 0.64993927 0.65059749 0.6512571  0.6519181
 0.65258049 0.65324427 0.65390943 0.65457597 0.6552439  0.6559132
 0.65658388 0.65725594 0.65792937 0.65860417 0.65928034 0.65995788
 0.66063678 0.66131705 0.66199869 0.66268168 0.66336604 0.66405175
 0.66473882 0.66542725 0.66611703 0.66680816 0.66750064 0.66819447
 0.66888965 0.66958617 0.67028404 0.67098325 0.6716838  0.6723857
 0.67308893 0.6737935  0.67449941 0.67520665 0.67591523 0.67662514
 0.67733638 0.67804895 0.67876285 0.67947808 0.68019464 0.68091252
 0.68163172 0.68235225 0.6830741  0.68379728 0.68452177 0.68524758
 0.68597471 0.68670316 0.68743292 0.688164   0.68889639 0.6896301
 0.69036512 0.69110145 0.69183909 0.69257804 0.6933183  0.69405987
 0.69480275 0.69554694 0.69629243 0.69703922 0.69778732 0.69853673
 0.69928744 0.70003945 0.70079277 0.70154738 0.7023033  0.70306052
 0.70381904 0.70457886 0.70533997 0.70610239 0.7068661  0.70763112
 0.70839743 0.70916503 0.70993394 0.71070414 0.71147563 0.71224842
 0.71302251 0.71379789 0.71457457 0.71535254]
t = [1.10072880e+09 1.10072889e+09 1.10072897e+09 1.10072906e+09
 1.10072915e+09 1.10072923e+09 1.10072932e+09 1.10072941e+09
 1.10072949e+09 1.10072958e+09 1.10072967e+09 1.10072975e+09
 1.10072984e+09 1.10072992e+09 1.10073001e+09 1.10073010e+09
 1.10073018e+09 1.10073027e+09 1.10073036e+09 1.10073044e+09
 1.10073053e+09 1.10073062e+09 1.10073070e+09 1.10073079e+09
 1.10073088e+09 1.10073096e+09 1.10073105e+09 1.10073114e+09
 1.10073122e+09 1.10073131e+09 1.10073139e+09 1.10073148e+09
 1.10073157e+09 1.10073165e+09 1.10073174e+09 1.10073183e+09
 1.10073191e+09 1.10073200e+09 1.10073209e+09 1.10073217e+09
 1.10073226e+09 1.10073235e+09 1.10073243e+09 1.10073252e+09
 1.10073261e+09 1.10073269e+09 1.10073278e+09 1.10073287e+09
 1.10073295e+09 1.10073304e+09 1.10073312e+09 1.10073321e+09
 1.10073330e+09 1.10073338e+09 1.10073347e+09 1.10073356e+09
 1.10073364e+09 1.10073373e+09 1.10073382e+09 1.10073390e+09
 1.10073399e+09 1.10073408e+09 1.10073416e+09 1.10073425e+09
 1.10073434e+09 1.10073442e+09 1.10073451e+09 1.10073459e+09
 1.10073468e+09 1.10073477e+09 1.10073485e+09 1.10073494e+09
 1.10073503e+09 1.10073511e+09 1.10073520e+09 1.10073529e+09
 1.10073537e+09 1.10073546e+09 1.10073555e+09 1.10073563e+09
 1.10073572e+09 1.10073581e+09 1.10073589e+09 1.10073598e+09
 1.10073607e+09 1.10073615e+09 1.10073624e+09 1.10073632e+09
 1.10073641e+09 1.10073650e+09 1.10073658e+09 1.10073667e+09
 1.10073676e+09 1.10073684e+09 1.10073693e+09 1.10073702e+09
 1.10073710e+09 1.10073719e+09 1.10073728e+09 1.10073736e+09
 1.10073745e+09 1.10073754e+09 1.10073762e+09 1.10073771e+09
 1.10073779e+09 1.10073788e+09 1.10073797e+09 1.10073805e+09
 1.10073814e+09 1.10073823e+09 1.10073831e+09 1.10073840e+09
 1.10073849e+09 1.10073857e+09 1.10073866e+09 1.10073875e+09
 1.10073883e+09 1.10073892e+09 1.10073901e+09 1.10073909e+09
 1.10073918e+09 1.10073927e+09 1.10073935e+09 1.10073944e+09
 1.10073952e+09 1.10073961e+09 1.10073970e+09 1.10073978e+09
 1.10073987e+09 1.10073996e+09 1.10074004e+09 1.10074013e+09
 1.10074022e+09 1.10074030e+09 1.10074039e+09 1.10074048e+09
 1.10074056e+09 1.10074065e+09 1.10074074e+09 1.10074082e+09
 1.10074091e+09 1.10074099e+09 1.10074108e+09 1.10074117e+09
 1.10074125e+09 1.10074134e+09 1.10074143e+09 1.10074151e+09
 1.10074160e+09 1.10074169e+09 1.10074177e+09 1.10074186e+09
 1.10074195e+09 1.10074203e+09 1.10074212e+09 1.10074221e+09
 1.10074229e+09 1.10074238e+09 1.10074247e+09 1.10074255e+09
 1.10074264e+09 1.10074272e+09 1.10074281e+09 1.10074290e+09
 1.10074298e+09 1.10074307e+09 1.10074316e+09 1.10074324e+09
 1.10074333e+09 1.10074342e+09 1.10074350e+09 1.10074359e+09
 1.10074368e+09 1.10074376e+09 1.10074385e+09 1.10074394e+09
 1.10074402e+09 1.10074411e+09 1.10074419e+09 1.10074428e+09
 1.10074437e+09 1.10074445e+09 1.10074454e+09 1.10074463e+09
 1.10074471e+09 1.10074480e+09 1.10074489e+09 1.10074497e+09
 1.10074506e+09 1.10074515e+09 1.10074523e+09 1.10074532e+09
 1.10074541e+09 1.10074549e+09 1.10074558e+09 1.10074567e+09
 1.10074575e+09 1.10074584e+09 1.10074592e+09 1.10074601e+09
 1.10074610e+09 1.10074618e+09 1.10074627e+09 1.10074636e+09
 1.10074644e+09 1.10074653e+09 1.10074662e+09 1.10074670e+09
 1.10074679e+09 1.10074688e+09 1.10074696e+09 1.10074705e+09
 1.10074714e+09 1.10074722e+09 1.10074731e+09 1.10074739e+09
 1.10074748e+09 1.10074757e+09 1.10074765e+09 1.10074774e+09
 1.10074783e+09 1.10074791e+09 1.10074800e+09 1.10074809e+09
 1.10074817e+09 1.10074826e+09 1.10074835e+09 1.10074843e+09
 1.10074852e+09 1.10074861e+09 1.10074869e+09 1.10074878e+09
 1.10074887e+09 1.10074895e+09 1.10074904e+09 1.10074912e+09
 1.10074921e+09 1.10074930e+09 1.10074938e+09 1.10074947e+09
 1.10074956e+09 1.10074964e+09 1.10074973e+09 1.10074982e+09
 1.10074990e+09 1.10074999e+09 1.10075008e+09 1.10075016e+09
 1.10075025e+09 1.10075034e+09 1.10075042e+09 1.10075051e+09
 1.10075059e+09 1.10075068e+09 1.10075077e+09 1.10075085e+09
 1.10075094e+09 1.10075103e+09 1.10075111e+09 1.10075120e+09
 1.10075129e+09 1.10075137e+09 1.10075146e+09 1.10075155e+09
 1.10075163e+09 1.10075172e+09 1.10075181e+09 1.10075189e+09
 1.10075198e+09 1.10075207e+09 1.10075215e+09 1.10075224e+09
 1.10075232e+09 1.10075241e+09 1.10075250e+09 1.10075258e+09
 1.10075267e+09 1.10075276e+09 1.10075284e+09 1.10075293e+09
 1.10075302e+09 1.10075310e+09 1.10075319e+09 1.10075328e+09
 1.10075336e+09 1.10075345e+09 1.10075354e+09 1.10075362e+09
 1.10075371e+09 1.10075379e+09 1.10075388e+09 1.10075397e+09
 1.10075405e+09 1.10075414e+09 1.10075423e+09 1.10075431e+09
 1.10075440e+09 1.10075449e+09 1.10075457e+09 1.10075466e+09
 1.10075475e+09 1.10075483e+09 1.10075492e+09 1.10075501e+09
 1.10075509e+09 1.10075518e+09 1.10075527e+09 1.10075535e+09
 1.10075544e+09 1.10075552e+09 1.10075561e+09 1.10075570e+09
 1.10075578e+09 1.10075587e+09 1.10075596e+09 1.10075604e+09
 1.10075613e+09 1.10075622e+09 1.10075630e+09 1.10075639e+09
 1.10075648e+09 1.10075656e+09 1.10075665e+09 1.10075674e+09
 1.10075682e+09 1.10075691e+09 1.10075699e+09 1.10075708e+09
 1.10075717e+09 1.10075725e+09 1.10075734e+09 1.10075743e+09
 1.10075751e+09 1.10075760e+09 1.10075769e+09 1.10075777e+09
 1.10075786e+09 1.10075795e+09 1.10075803e+09 1.10075812e+09
 1.10075821e+09 1.10075829e+09 1.10075838e+09 1.10075847e+09
 1.10075855e+09 1.10075864e+09 1.10075872e+09 1.10075881e+09
 1.10075890e+09 1.10075898e+09 1.10075907e+09 1.10075916e+09
 1.10075924e+09 1.10075933e+09 1.10075942e+09 1.10075950e+09
 1.10075959e+09 1.10075968e+09 1.10075976e+09 1.10075985e+09
 1.10075994e+09 1.10076002e+09 1.10076011e+09 1.10076019e+09
 1.10076028e+09 1.10076037e+09 1.10076045e+09 1.10076054e+09
 1.10076063e+09 1.10076071e+09 1.10076080e+09 1.10076089e+09
 1.10076097e+09 1.10076106e+09 1.10076115e+09 1.10076123e+09
 1.10076132e+09 1.10076141e+09 1.10076149e+09 1.10076158e+09
 1.10076167e+09 1.10076175e+09 1.10076184e+09 1.10076192e+09
 1.10076201e+09 1.10076210e+09 1.10076218e+09 1.10076227e+09
 1.10076236e+09 1.10076244e+09 1.10076253e+09 1.10076262e+09
 1.10076270e+09 1.10076279e+09 1.10076288e+09 1.10076296e+09
 1.10076305e+09 1.10076314e+09 1.10076322e+09 1.10076331e+09
 1.10076339e+09 1.10076348e+09 1.10076357e+09 1.10076365e+09
 1.10076374e+09 1.10076383e+09 1.10076391e+09 1.10076400e+09
 1.10076409e+09 1.10076417e+09 1.10076426e+09 1.10076435e+09
 1.10076443e+09 1.10076452e+09 1.10076461e+09 1.10076469e+09
 1.10076478e+09 1.10076487e+09 1.10076495e+09 1.10076504e+09
 1.10076512e+09 1.10076521e+09 1.10076530e+09 1.10076538e+09
 1.10076547e+09 1.10076556e+09 1.10076564e+09 1.10076573e+09
 1.10076582e+09 1.10076590e+09 1.10076599e+09 1.10076608e+09
 1.10076616e+09 1.10076625e+09 1.10076634e+09 1.10076642e+09
 1.10076651e+09 1.10076659e+09 1.10076668e+09 1.10076677e+09
 1.10076685e+09 1.10076694e+09 1.10076703e+09 1.10076711e+09
 1.10076720e+09 1.10076729e+09 1.10076737e+09 1.10076746e+09
 1.10076755e+09 1.10076763e+09 1.10076772e+09 1.10076781e+09
 1.10076789e+09 1.10076798e+09 1.10076807e+09 1.10076815e+09
 1.10076824e+09 1.10076832e+09 1.10076841e+09 1.10076850e+09
 1.10076858e+09 1.10076867e+09 1.10076876e+09 1.10076884e+09
 1.10076893e+09 1.10076902e+09 1.10076910e+09 1.10076919e+09
 1.10076928e+09 1.10076936e+09 1.10076945e+09 1.10076954e+09
 1.10076962e+09 1.10076971e+09 1.10076979e+09 1.10076988e+09
 1.10076997e+09 1.10077005e+09 1.10077014e+09 1.10077023e+09
 1.10077031e+09 1.10077040e+09 1.10077049e+09 1.10077057e+09
 1.10077066e+09 1.10077075e+09 1.10077083e+09 1.10077092e+09
 1.10077101e+09 1.10077109e+09 1.10077118e+09 1.10077127e+09
 1.10077135e+09 1.10077144e+09 1.10077152e+09 1.10077161e+09
 1.10077170e+09 1.10077178e+09 1.10077187e+09 1.10077196e+09
 1.10077204e+09 1.10077213e+09 1.10077222e+09 1.10077230e+09
 1.10077239e+09 1.10077248e+09 1.10077256e+09 1.10077265e+09
 1.10077274e+09 1.10077282e+09 1.10077291e+09 1.10077299e+09
 1.10077308e+09 1.10077317e+09 1.10077325e+09 1.10077334e+09
 1.10077343e+09 1.10077351e+09 1.10077360e+09 1.10077369e+09
 1.10077377e+09 1.10077386e+09 1.10077395e+09 1.10077403e+09
 1.10077412e+09 1.10077421e+09 1.10077429e+09 1.10077438e+09
 1.10077447e+09 1.10077455e+09 1.10077464e+09 1.10077472e+09
 1.10077481e+09 1.10077490e+09 1.10077498e+09 1.10077507e+09
 1.10077516e+09 1.10077524e+09 1.10077533e+09 1.10077542e+09
 1.10077550e+09 1.10077559e+09 1.10077568e+09 1.10077576e+09
 1.10077585e+09 1.10077594e+09 1.10077602e+09 1.10077611e+09
 1.10077619e+09 1.10077628e+09 1.10077637e+09 1.10077645e+09
 1.10077654e+09 1.10077663e+09 1.10077671e+09 1.10077680e+09
 1.10077689e+09 1.10077697e+09 1.10077706e+09 1.10077715e+09
 1.10077723e+09 1.10077732e+09 1.10077741e+09 1.10077749e+09
