name =JUICE_ROI_GAN_2_0_04
flyby = ['2034 NOV 18 09:58:51', '2034 NOV 19 09:58:51']
Observation TW = <SpiceCell dtype = 1, length = 0, size = 2400, card = 4, is_set = 1, adjust = 0, init = 1, base = 93981712745888, data = 93981712745936>
Res(t) = [0.54868754 0.54885749 0.54902765 0.54919801 0.54936857 0.54953934
 0.5497103  0.54988148 0.55005285 0.55022442 0.5503962  0.55056818
 0.55074036 0.55091274 0.55108533 0.55125811 0.55143109 0.55160428
 0.55177766 0.55195125 0.55212503 0.55229902 0.5524732  0.55264758
 0.55282216 0.55299694 0.55317192 0.55334709 0.55352247 0.55369804
 0.55387381 0.55404977 0.55422593 0.55440229 0.55457885 0.5547556
 0.55493255 0.55510969 0.55528703 0.55546457 0.5556423  0.55582022
 0.55599834 0.55617665 0.55635516 0.55653386 0.55671276 0.55689185
 0.55707113 0.55725061 0.55743028 0.55761014 0.55779019 0.55797044
 0.55815087 0.5583315  0.55851232 0.55869334 0.55887454 0.55905593
 0.55923752 0.55941929 0.55960126 0.55978341 0.55996575 0.56014829
 0.56033101 0.56051392 0.56069702 0.56088031 0.56106379 0.56124745
 0.5614313  0.56161534 0.56179957 0.56198399 0.56216859 0.56235338
 0.56253835 0.56272351 0.56290886 0.56309439 0.56328011 0.56346601
 0.5636521  0.56383837 0.56402482 0.56421146 0.56439829 0.5645853
 0.56477249 0.56495987 0.56514743 0.56533517 0.56552309 0.5657112
 0.56589949 0.56608796 0.56627661 0.56646544 0.56665446 0.56684365
 0.56703303 0.56722259 0.56741232 0.56760224 0.56779234 0.56798261
 0.56817307 0.56836371 0.56855452 0.56874551 0.56893668 0.56912803
 0.56931956 0.56951126 0.56970315 0.5698952  0.57008744 0.57027985
 0.57047244 0.57066521 0.57085815 0.57105127 0.57124456 0.57143803
 0.57163167 0.57182549 0.57201948 0.57221365 0.57240799 0.5726025
 0.57279719 0.57299205 0.57318709 0.57338229 0.57357768 0.57377323
 0.57396895 0.57416485 0.57436092 0.57455716 0.57475357 0.57495015
 0.5751469  0.57534383 0.57554092 0.57573819 0.57593562 0.57613322
 0.57633099 0.57652894 0.57672705 0.57692533 0.57712377 0.57732239
 0.57752117 0.57772012 0.57791924 0.57811853 0.57831798 0.5785176
 0.57871738 0.57891733 0.57911745 0.57931774 0.57951818 0.5797188
 0.57991958 0.58012052 0.58032163 0.5805229  0.58072434 0.58092594
 0.5811277  0.58132963 0.58153172 0.58173397 0.58193639 0.58213896
 0.5823417  0.58254461 0.58274767 0.58295089 0.58315428 0.58335783
 0.58356153 0.5837654  0.58396943 0.58417362 0.58437797 0.58458247
 0.58478714 0.58499196 0.58519695 0.58540209 0.58560739 0.58581285
 0.58601846 0.58622424 0.58643017 0.58663626 0.5868425  0.5870489
 0.58725546 0.58746217 0.58766904 0.58787607 0.58808325 0.58829058
 0.58849808 0.58870572 0.58891352 0.58912147 0.58932958 0.58953784
 0.58974625 0.58995482 0.59016354 0.59037242 0.59058144 0.59079062
 0.59099995 0.59120943 0.59141906 0.59162885 0.59183878 0.59204887
 0.5922591  0.59246949 0.59268002 0.59289071 0.59310155 0.59331253
 0.59352366 0.59373495 0.59394638 0.59415796 0.59436969 0.59458156
 0.59479358 0.59500575 0.59521807 0.59543054 0.59564315 0.5958559
 0.59606881 0.59628186 0.59649505 0.59670839 0.59692188 0.59713551
 0.59734928 0.5975632  0.59777727 0.59799147 0.59820583 0.59842032
 0.59863496 0.59884974 0.59906466 0.59927973 0.59949494 0.59971029
 0.59992578 0.60014142 0.60035719 0.60057311 0.60078917 0.60100536
 0.6012217  0.60143818 0.6016548  0.60187156 0.60208845 0.60230549
 0.60252266 0.60273998 0.60295743 0.60317502 0.60339275 0.60361061
 0.60382862 0.60404676 0.60426504 0.60448345 0.604702   0.60492069
 0.60513951 0.60535847 0.60557757 0.60579679 0.60601616 0.60623566
 0.60645529 0.60667506 0.60689496 0.607115   0.60733517 0.60755547
 0.60777591 0.60799648 0.60821718 0.60843802 0.60865898 0.60888008
 0.60910131 0.60932267 0.60954416 0.60976579 0.60998754 0.61020943
 0.61043144 0.61065359 0.61087586 0.61109827 0.6113208  0.61154346
 0.61176626 0.61198918 0.61221223 0.6124354  0.61265871 0.61288214
 0.6131057  0.61332939 0.6135532  0.61377714 0.61400121 0.6142254
 0.61444972 0.61467416 0.61489873 0.61512343 0.61534825 0.61557319
 0.61579826 0.61602346 0.61624878 0.61647422 0.61669978 0.61692547
 0.61715128 0.61737722 0.61760328 0.61782946 0.61805576 0.61828218
 0.61850873 0.61873539 0.61896218 0.61918909 0.61941612 0.61964327
 0.61987054 0.62009793 0.62032545 0.62055308 0.62078083 0.62100869
 0.62123668 0.62146479 0.62169301 0.62192136 0.62214982 0.62237839
 0.62260709 0.6228359  0.62306483 0.62329388 0.62352304 0.62375232
 0.62398172 0.62421123 0.62444086 0.6246706  0.62490046 0.62513043
 0.62536052 0.62559072 0.62582104 0.62605146 0.62628201 0.62651267
 0.62674344 0.62697432 0.62720531 0.62743642 0.62766764 0.62789898
 0.62813042 0.62836198 0.62859365 0.62882542 0.62905731 0.62928932
 0.62952143 0.62975365 0.62998598 0.63021842 0.63045097 0.63068363
 0.6309164  0.63114928 0.63138226 0.63161536 0.63184856 0.63208187
 0.63231529 0.63254882 0.63278245 0.63301619 0.63325004 0.63348399
 0.63371805 0.63395222 0.63418649 0.63442087 0.63465535 0.63488994
 0.63512464 0.63535944 0.63559434 0.63582934 0.63606446 0.63629967
 0.63653499 0.63677041 0.63700594 0.63724156 0.63747729 0.63771313
 0.63794906 0.6381851  0.63842124 0.63865748 0.63889382 0.63913027
 0.63936681 0.63960345 0.6398402  0.64007705 0.64031399 0.64055104
 0.64078818 0.64102542 0.64126277 0.64150021 0.64173775 0.64197539
 0.64221313 0.64245096 0.64268889 0.64292692 0.64316505 0.64340328
 0.6436416  0.64388002 0.64411853 0.64435714 0.64459585 0.64483465
 0.64507355 0.64531254 0.64555163 0.64579082 0.64603009 0.64626947
 0.64650893 0.64674849 0.64698815 0.6472279  0.64746774 0.64770767
 0.6479477  0.64818782 0.64842803 0.64866834 0.64890873 0.64914922
 0.6493898  0.64963047 0.64987124 0.65011209 0.65035303 0.65059407
 0.65083519 0.65107641 0.65131771 0.65155911 0.65180059 0.65204216
 0.65228382 0.65252557 0.65276741 0.65300934 0.65325136 0.65349346
 0.65373565 0.65397793 0.6542203  0.65446275 0.65470529 0.65494791
 0.65519063 0.65543343 0.65567631 0.65591928 0.65616234 0.65640548
 0.6566487  0.65689202 0.65713541 0.65737889 0.65762246 0.6578661
 0.65810984 0.65835365 0.65859755 0.65884154 0.6590856  0.65932975
 0.65957398 0.65981829 0.66006269 0.66030717 0.66055173 0.66079637
 0.66104109 0.66128589 0.66153078 0.66177574 0.66202079 0.66226591
 0.66251112 0.6627564  0.66300177 0.66324721 0.66349273 0.66373834
 0.66398402 0.66422978 0.66447562 0.66472153 0.66496753 0.6652136
 0.66545975 0.66570598 0.66595228 0.66619866 0.66644512 0.66669165
 0.66693826 0.66718495 0.66743171 0.66767855 0.66792547 0.66817246
 0.66841952 0.66866666 0.66891387 0.66916116 0.66940853 0.66965596
 0.66990347 0.67015106 0.67039872 0.67064645 0.67089425 0.67114213
 0.67139008 0.6716381  0.6718862  0.67213437 0.67238261 0.67263092
 0.6728793  0.67312775 0.67337628 0.67362487 0.67387354 0.67412227
 0.67437108 0.67461996 0.67486891 0.67511792 0.67536701 0.67561616
 0.67586539 0.67611468 0.67636404 0.67661347 0.67686297 0.67711254
 0.67736218 0.67761188 0.67786165 0.67811149 0.67836139 0.67861137
 0.6788614  0.67911151 0.67936168 0.67961192 0.67986222 0.68011259
 0.68036303 0.68061353 0.6808641  0.68111473 0.68136542 0.68161618
 0.68186701 0.6821179  0.68236885 0.68261987 0.68287095 0.6831221
 0.6833733  0.68362458 0.68387591 0.68412731 0.68437877 0.68463029
 0.68488187 0.68513352 0.68538523 0.685637   0.68588883 0.68614072
 0.68639267 0.68664469 0.68689676 0.6871489  0.68740109 0.68765335
 0.68790567 0.68815804 0.68841048 0.68866297 0.68891553 0.68916814
 0.68942081 0.68967354 0.68992633 0.69017918 0.69043208 0.69068505
 0.69093807 0.69119115 0.69144429 0.69169748 0.69195073 0.69220404
 0.6924574  0.69271082 0.6929643  0.69321783 0.69347142 0.69372507
 0.69397877 0.69423252 0.69448633 0.6947402  0.69499412 0.6952481
 0.69550213 0.69575621 0.69601035 0.69626455 0.69651879 0.69677309
 0.69702745 0.69728185 0.69753631 0.69779083 0.69804539 0.69830001
 0.69855468 0.69880941 0.69906418 0.69931901 0.69957389 0.69982882
 0.7000838  0.70033884 0.70059392 0.70084906 0.70110424 0.70135948
 0.70161477 0.7018701  0.70212549 0.70238093 0.70263642 0.70289195
 0.70314754 0.70340317 0.70365886 0.70391459 0.70417037 0.7044262
 0.70468208 0.704938   0.70519398 0.70545    0.70570607 0.70596219
 0.70621835 0.70647456 0.70673082 0.70698713 0.70724348 0.70749988
 0.70775633 0.70801282 0.70826936 0.70852594 0.70878257 0.70903924
 0.70929596 0.70955273 0.70980954 0.71006639 0.71032329 0.71058024
 0.71083723 0.71109426 0.71135134 0.71160846 0.71186562 0.71212283
 0.71238008 0.71263738 0.71289472 0.7131521  0.71340952 0.71366699
 0.7139245  0.71418205 0.71443964 0.71469728 0.71495495 0.71521267
 0.71547043 0.71572824 0.71598608 0.71624396 0.71650189 0.71675986
 0.71701786 0.71727591 0.717534   0.71779213 0.71805029 0.7183085
 0.71856675 0.71882503 0.71908336 0.71934173 0.71960013 0.71985857
 0.72011706 0.72037558 0.72063414 0.72089274 0.72115137 0.72141005
 0.72166876 0.72192751 0.72218629 0.72244512 0.72270398 0.72296288
 0.72322182 0.72348079 0.7237398  0.72399885 0.72425793 0.72451705
 0.7247762  0.72503539 0.72529462 0.72555388 0.72581318 0.72607251
 0.72633188 0.72659129 0.72685073 0.7271102  0.72736971 0.72762925
 0.72788883 0.72814844 0.72840809 0.72866777 0.72892748 0.72918723
 0.72944701 0.72970682 0.72996667 0.73022655 0.73048646 0.73074641
 0.73100639 0.7312664  0.73152645 0.73178652 0.73204663 0.73230677
 0.73256695 0.73282715 0.73308739 0.73334765 0.73360795 0.73386828
 0.73412865 0.73438904 0.73464946 0.73490991 0.7351704  0.73543091
 0.73569146 0.73595203 0.73621264 0.73647327 0.73673394 0.73699463
 0.73725536 0.73751611 0.73777689 0.73803771 0.73829855 0.73855942
 0.73882031 0.73908124 0.7393422  0.73960318 0.73986419 0.74012523
 0.7403863  0.74064739 0.74090852 0.74116967 0.74143085 0.74169205
 0.74195328 0.74221454 0.74247583 0.74273715 0.74299849 0.74325985
 0.74352125 0.74378267 0.74404411 0.74430558 0.74456708 0.7448286
 0.74509015 0.74535173 0.74561333 0.74587495 0.7461366  0.74639828
 0.74665998 0.74692171 0.74718346 0.74744523 0.74770703 0.74796886
 0.7482307  0.74849258 0.74875447 0.74901639 0.74927834 0.74954031
 0.7498023  0.75006431 0.75032635 0.75058841 0.7508505  0.7511126
 0.75137473 0.75163689 0.75189906 0.75216126 0.75242348 0.75268572
 0.75294799 0.75321027 0.75347258 0.75373491 0.75399727 0.75425964
 0.75452204 0.75478445 0.75504689 0.75530935 0.75557183 0.75583433
 0.75609686 0.7563594  0.75662196 0.75688455 0.75714715 0.75740978
 0.75767242 0.75793509 0.75819777 0.75846048 0.7587232  0.75898595
 0.75924871 0.75951149 0.7597743  0.76003712 0.76029996 0.76056282
 0.7608257  0.7610886  0.76135152 0.76161445 0.76187741 0.76214038
 0.76240337 0.76266638 0.7629294  0.76319245 0.76345551 0.76371859
 0.76398169 0.76424481 0.76450794 0.76477109 0.76503426 0.76529745
 0.76556065 0.76582387 0.76608711 0.76635036 0.76661363 0.76687692
 0.76714022 0.76740354 0.76766688 0.76793023 0.7681936  0.76845698
 0.76872038 0.7689838  0.76924723 0.76951068 0.76977414 0.77003762
 0.77030112 0.77056463 0.77082815 0.77109169 0.77135525 0.77161882
 0.7718824  0.772146   0.77240962 0.77267325 0.77293689 0.77320055
 0.77346422 0.77372791 0.77399161 0.77425532 0.77451905 0.77478279
 0.77504655 0.77531032 0.7755741  0.7758379  0.77610171 0.77636554
 0.77662937 0.77689322 0.77715709 0.77742096 0.77768485 0.77794876
 0.77821267 0.7784766  0.77874054 0.7790045  0.77926846 0.77953244
 0.77979643 0.78006043 0.78032445 0.78058847 0.78085251 0.78111656
 0.78138063 0.7816447  0.78190879 0.78217288]
t = [1.10078655e+09 1.10078658e+09 1.10078661e+09 1.10078664e+09
 1.10078666e+09 1.10078669e+09 1.10078672e+09 1.10078675e+09
 1.10078678e+09 1.10078681e+09 1.10078684e+09 1.10078687e+09
 1.10078689e+09 1.10078692e+09 1.10078695e+09 1.10078698e+09
 1.10078701e+09 1.10078704e+09 1.10078707e+09 1.10078710e+09
 1.10078712e+09 1.10078715e+09 1.10078718e+09 1.10078721e+09
 1.10078724e+09 1.10078727e+09 1.10078730e+09 1.10078732e+09
 1.10078735e+09 1.10078738e+09 1.10078741e+09 1.10078744e+09
 1.10078747e+09 1.10078750e+09 1.10078753e+09 1.10078755e+09
 1.10078758e+09 1.10078761e+09 1.10078764e+09 1.10078767e+09
 1.10078770e+09 1.10078773e+09 1.10078775e+09 1.10078778e+09
 1.10078781e+09 1.10078784e+09 1.10078787e+09 1.10078790e+09
 1.10078793e+09 1.10078796e+09 1.10078798e+09 1.10078801e+09
 1.10078804e+09 1.10078807e+09 1.10078810e+09 1.10078813e+09
 1.10078816e+09 1.10078818e+09 1.10078821e+09 1.10078824e+09
 1.10078827e+09 1.10078830e+09 1.10078833e+09 1.10078836e+09
 1.10078839e+09 1.10078841e+09 1.10078844e+09 1.10078847e+09
 1.10078850e+09 1.10078853e+09 1.10078856e+09 1.10078859e+09
 1.10078862e+09 1.10078864e+09 1.10078867e+09 1.10078870e+09
 1.10078873e+09 1.10078876e+09 1.10078879e+09 1.10078882e+09
 1.10078884e+09 1.10078887e+09 1.10078890e+09 1.10078893e+09
 1.10078896e+09 1.10078899e+09 1.10078902e+09 1.10078905e+09
 1.10078907e+09 1.10078910e+09 1.10078913e+09 1.10078916e+09
 1.10078919e+09 1.10078922e+09 1.10078925e+09 1.10078927e+09
 1.10078930e+09 1.10078933e+09 1.10078936e+09 1.10078939e+09
 1.10078942e+09 1.10078945e+09 1.10078948e+09 1.10078950e+09
 1.10078953e+09 1.10078956e+09 1.10078959e+09 1.10078962e+09
 1.10078965e+09 1.10078968e+09 1.10078970e+09 1.10078973e+09
 1.10078976e+09 1.10078979e+09 1.10078982e+09 1.10078985e+09
 1.10078988e+09 1.10078991e+09 1.10078993e+09 1.10078996e+09
 1.10078999e+09 1.10079002e+09 1.10079005e+09 1.10079008e+09
 1.10079011e+09 1.10079014e+09 1.10079016e+09 1.10079019e+09
 1.10079022e+09 1.10079025e+09 1.10079028e+09 1.10079031e+09
 1.10079034e+09 1.10079036e+09 1.10079039e+09 1.10079042e+09
 1.10079045e+09 1.10079048e+09 1.10079051e+09 1.10079054e+09
 1.10079057e+09 1.10079059e+09 1.10079062e+09 1.10079065e+09
 1.10079068e+09 1.10079071e+09 1.10079074e+09 1.10079077e+09
 1.10079079e+09 1.10079082e+09 1.10079085e+09 1.10079088e+09
 1.10079091e+09 1.10079094e+09 1.10079097e+09 1.10079100e+09
 1.10079102e+09 1.10079105e+09 1.10079108e+09 1.10079111e+09
 1.10079114e+09 1.10079117e+09 1.10079120e+09 1.10079122e+09
 1.10079125e+09 1.10079128e+09 1.10079131e+09 1.10079134e+09
 1.10079137e+09 1.10079140e+09 1.10079143e+09 1.10079145e+09
 1.10079148e+09 1.10079151e+09 1.10079154e+09 1.10079157e+09
 1.10079160e+09 1.10079163e+09 1.10079165e+09 1.10079168e+09
 1.10079171e+09 1.10079174e+09 1.10079177e+09 1.10079180e+09
 1.10079183e+09 1.10079186e+09 1.10079188e+09 1.10079191e+09
 1.10079194e+09 1.10079197e+09 1.10079200e+09 1.10079203e+09
 1.10079206e+09 1.10079209e+09 1.10079211e+09 1.10079214e+09
 1.10079217e+09 1.10079220e+09 1.10079223e+09 1.10079226e+09
 1.10079229e+09 1.10079231e+09 1.10079234e+09 1.10079237e+09
 1.10079240e+09 1.10079243e+09 1.10079246e+09 1.10079249e+09
 1.10079252e+09 1.10079254e+09 1.10079257e+09 1.10079260e+09
 1.10079263e+09 1.10079266e+09 1.10079269e+09 1.10079272e+09
 1.10079274e+09 1.10079277e+09 1.10079280e+09 1.10079283e+09
 1.10079286e+09 1.10079289e+09 1.10079292e+09 1.10079295e+09
 1.10079297e+09 1.10079300e+09 1.10079303e+09 1.10079306e+09
 1.10079309e+09 1.10079312e+09 1.10079315e+09 1.10079317e+09
 1.10079320e+09 1.10079323e+09 1.10079326e+09 1.10079329e+09
 1.10079332e+09 1.10079335e+09 1.10079338e+09 1.10079340e+09
 1.10079343e+09 1.10079346e+09 1.10079349e+09 1.10079352e+09
 1.10079355e+09 1.10079358e+09 1.10079361e+09 1.10079363e+09
 1.10079366e+09 1.10079369e+09 1.10079372e+09 1.10079375e+09
 1.10079378e+09 1.10079381e+09 1.10079383e+09 1.10079386e+09
 1.10079389e+09 1.10079392e+09 1.10079395e+09 1.10079398e+09
 1.10079401e+09 1.10079404e+09 1.10079406e+09 1.10079409e+09
 1.10079412e+09 1.10079415e+09 1.10079418e+09 1.10079421e+09
 1.10079424e+09 1.10079426e+09 1.10079429e+09 1.10079432e+09
 1.10079435e+09 1.10079438e+09 1.10079441e+09 1.10079444e+09
 1.10079447e+09 1.10079449e+09 1.10079452e+09 1.10079455e+09
 1.10079458e+09 1.10079461e+09 1.10079464e+09 1.10079467e+09
 1.10079469e+09 1.10079472e+09 1.10079475e+09 1.10079478e+09
 1.10079481e+09 1.10079484e+09 1.10079487e+09 1.10079490e+09
 1.10079492e+09 1.10079495e+09 1.10079498e+09 1.10079501e+09
 1.10079504e+09 1.10079507e+09 1.10079510e+09 1.10079513e+09
 1.10079515e+09 1.10079518e+09 1.10079521e+09 1.10079524e+09
 1.10079527e+09 1.10079530e+09 1.10079533e+09 1.10079535e+09
 1.10079538e+09 1.10079541e+09 1.10079544e+09 1.10079547e+09
 1.10079550e+09 1.10079553e+09 1.10079556e+09 1.10079558e+09
 1.10079561e+09 1.10079564e+09 1.10079567e+09 1.10079570e+09
 1.10079573e+09 1.10079576e+09 1.10079578e+09 1.10079581e+09
 1.10079584e+09 1.10079587e+09 1.10079590e+09 1.10079593e+09
 1.10079596e+09 1.10079599e+09 1.10079601e+09 1.10079604e+09
 1.10079607e+09 1.10079610e+09 1.10079613e+09 1.10079616e+09
 1.10079619e+09 1.10079621e+09 1.10079624e+09 1.10079627e+09
 1.10079630e+09 1.10079633e+09 1.10079636e+09 1.10079639e+09
 1.10079642e+09 1.10079644e+09 1.10079647e+09 1.10079650e+09
 1.10079653e+09 1.10079656e+09 1.10079659e+09 1.10079662e+09
 1.10079665e+09 1.10079667e+09 1.10079670e+09 1.10079673e+09
 1.10079676e+09 1.10079679e+09 1.10079682e+09 1.10079685e+09
 1.10079687e+09 1.10079690e+09 1.10079693e+09 1.10079696e+09
 1.10079699e+09 1.10079702e+09 1.10079705e+09 1.10079708e+09
 1.10079710e+09 1.10079713e+09 1.10079716e+09 1.10079719e+09
 1.10079722e+09 1.10079725e+09 1.10079728e+09 1.10079730e+09
 1.10079733e+09 1.10079736e+09 1.10079739e+09 1.10079742e+09
 1.10079745e+09 1.10079748e+09 1.10079751e+09 1.10079753e+09
 1.10079756e+09 1.10079759e+09 1.10079762e+09 1.10079765e+09
 1.10079768e+09 1.10079771e+09 1.10079773e+09 1.10079776e+09
 1.10079779e+09 1.10079782e+09 1.10079785e+09 1.10079788e+09
 1.10079791e+09 1.10079794e+09 1.10079796e+09 1.10079799e+09
 1.10079802e+09 1.10079805e+09 1.10079808e+09 1.10079811e+09
 1.10079814e+09 1.10079817e+09 1.10079819e+09 1.10079822e+09
 1.10079825e+09 1.10079828e+09 1.10079831e+09 1.10079834e+09
 1.10079837e+09 1.10079839e+09 1.10079842e+09 1.10079845e+09
 1.10079848e+09 1.10079851e+09 1.10079854e+09 1.10079857e+09
 1.10079860e+09 1.10079862e+09 1.10079865e+09 1.10079868e+09
 1.10079871e+09 1.10079874e+09 1.10079877e+09 1.10079880e+09
 1.10079882e+09 1.10079885e+09 1.10079888e+09 1.10079891e+09
 1.10079894e+09 1.10079897e+09 1.10079900e+09 1.10079903e+09
 1.10079905e+09 1.10079908e+09 1.10079911e+09 1.10079914e+09
 1.10079917e+09 1.10079920e+09 1.10079923e+09 1.10079925e+09
 1.10079928e+09 1.10079931e+09 1.10079934e+09 1.10079937e+09
 1.10079940e+09 1.10079943e+09 1.10079946e+09 1.10079948e+09
 1.10079951e+09 1.10079954e+09 1.10079957e+09 1.10079960e+09
 1.10079963e+09 1.10079966e+09 1.10079969e+09 1.10079971e+09
 1.10079974e+09 1.10079977e+09 1.10079980e+09 1.10079983e+09
 1.10079986e+09 1.10079989e+09 1.10079991e+09 1.10079994e+09
 1.10079997e+09 1.10080000e+09 1.10080003e+09 1.10080006e+09
 1.10080009e+09 1.10080012e+09 1.10080014e+09 1.10080017e+09
 1.10080020e+09 1.10080023e+09 1.10080026e+09 1.10080029e+09
 1.10080032e+09 1.10080034e+09 1.10080037e+09 1.10080040e+09
 1.10080043e+09 1.10080046e+09 1.10080049e+09 1.10080052e+09
 1.10080055e+09 1.10080057e+09 1.10080060e+09 1.10080063e+09
 1.10080066e+09 1.10080069e+09 1.10080072e+09 1.10080075e+09
 1.10080077e+09 1.10080080e+09 1.10080083e+09 1.10080086e+09
 1.10080089e+09 1.10080092e+09 1.10080095e+09 1.10080098e+09
 1.10080100e+09 1.10080103e+09 1.10080106e+09 1.10080109e+09
 1.10080112e+09 1.10080115e+09 1.10080118e+09 1.10080120e+09
 1.10080123e+09 1.10080126e+09 1.10080129e+09 1.10080132e+09
 1.10080135e+09 1.10080138e+09 1.10080141e+09 1.10080143e+09
 1.10080146e+09 1.10080149e+09 1.10080152e+09 1.10080155e+09
 1.10080158e+09 1.10080161e+09 1.10080164e+09 1.10080166e+09
 1.10080169e+09 1.10080172e+09 1.10080175e+09 1.10080178e+09
 1.10080181e+09 1.10080184e+09 1.10080186e+09 1.10080189e+09
 1.10080192e+09 1.10080195e+09 1.10080198e+09 1.10080201e+09
 1.10080204e+09 1.10080207e+09 1.10080209e+09 1.10080212e+09
 1.10080215e+09 1.10080218e+09 1.10080221e+09 1.10080224e+09
 1.10080227e+09 1.10080229e+09 1.10080232e+09 1.10080235e+09
 1.10080238e+09 1.10080241e+09 1.10080244e+09 1.10080247e+09
 1.10080250e+09 1.10080252e+09 1.10080255e+09 1.10080258e+09
