name =JUICE_ROI_GAN_6_3_01
flyby = ['2034 SEP 07 06:03:51', '2034 SEP 08 06:03:51']
Observation TW = <SpiceCell dtype = 1, length = 0, size = 3200, card = 12, is_set = 1, adjust = 0, init = 1, base = 94488558162976, data = 94488558163024>
Res(t) = [1.53242568 1.53044487 1.52846735 1.52649313 1.5245222  1.52255459
 1.52059029 1.5186293  1.51667164 1.5147173  1.51276629 1.51081862
 1.5088743  1.50693332 1.50499569 1.50306142 1.50113051 1.49920297
 1.49727881 1.49535802 1.49344061 1.49152659 1.48961596 1.48770874
 1.48580491 1.48390449 1.48200749 1.48011391 1.47822374 1.47633701
 1.47445371 1.47257385 1.47069744 1.46882447 1.46695496 1.46508891
 1.46322632 1.46136721 1.45951157 1.4576594  1.45581073 1.45396554
 1.45212385 1.45028567 1.44845098 1.44661981 1.44479216 1.44296803
 1.44114742 1.43933035 1.43751681 1.43570682 1.43390037 1.43209748
 1.43029814 1.42850237 1.42671017 1.42492154 1.42313648 1.42135502
 1.41957714 1.41780285 1.41603217 1.41426509 1.41250162 1.41074176
 1.40898552 1.40723291 1.40548393 1.40373859 1.40199688 1.40025882
 1.39852441 1.39679366 1.39506657 1.39334315 1.3916234  1.38990732
 1.38819492 1.38648622 1.3847812  1.38307988 1.38138227 1.37968836
 1.37799816 1.37631168 1.37462893 1.3729499  1.3712746  1.36960304
 1.36793523 1.36627116 1.36461085 1.36295429 1.3613015  1.35965247
 1.35800722 1.35636574 1.35472805 1.35309415 1.35146404 1.34983773
 1.34821522 1.34659652 1.34498163 1.34337056 1.34176331 1.34015989
 1.3385603  1.33696455 1.33537265 1.33378459 1.33220038 1.33062003
 1.32904354 1.32747092 1.32590216 1.32433729 1.3227763  1.32121919
 1.31966597 1.31811665 1.31657123 1.31502971 1.3134921  1.31195841
 1.31042864 1.30890279 1.30738087 1.30586288 1.30434883 1.30283872
 1.30133256 1.29983035 1.2983321  1.29683781 1.29534748 1.29386112
 1.29237874 1.29090033 1.28942591 1.28795548 1.28648904 1.2850266
 1.28356815 1.28211372 1.28066329 1.27921688 1.27777448 1.27633611
 1.27490177 1.27347145 1.27204518 1.27062294 1.26920475 1.26779061
 1.26638052 1.26497448 1.26357251 1.2621746  1.26078076 1.259391
 1.25800531 1.25662371 1.25524619 1.25387276 1.25250342 1.25113819
 1.24977705 1.24842002 1.2470671  1.24571829 1.2443736  1.24303303
 1.24169658 1.24036427 1.23903608 1.23771204 1.23639213 1.23507636
 1.23376475 1.23245728 1.23115397 1.22985482 1.22855983 1.227269
 1.22598234 1.22469986 1.22342155 1.22214742 1.22087747 1.21961171
 1.21835014 1.21709276 1.21583958 1.21459059 1.21334581 1.21210524
 1.21086887 1.20963672 1.20840878 1.20718506 1.20596556 1.20475028
 1.20353924 1.20233242 1.20112984 1.19993149 1.19873739 1.19754752
 1.19636191 1.19518054 1.19400342 1.19283055 1.19166194 1.19049759
 1.1893375  1.18818168 1.18703012 1.18588283 1.18473982 1.18360107
 1.18246661 1.18133643 1.18021052 1.1790889  1.17797157 1.17685853
 1.17574978 1.17464532 1.17354516 1.17244929 1.17135773 1.17027046
 1.16918751 1.16810885 1.16703451 1.16596448 1.16489875 1.16383735
 1.16278026 1.16172748 1.16067903 1.15963489 1.15859508 1.1575596
 1.15652844 1.15550161 1.15447911 1.15346094 1.1524471  1.1514376
 1.15043243 1.1494316  1.14843511 1.14744296 1.14645514 1.14547167
 1.14449255 1.14351777 1.14254733 1.14158124 1.1406195  1.13966211
 1.13870906 1.13776037 1.13681603 1.13587605 1.13494041 1.13400913
 1.13308221 1.13215964 1.13124142 1.13032757 1.12941807 1.12851293
 1.12761215 1.12671572 1.12582366 1.12493595 1.12405261 1.12317363
 1.12229901 1.12142875 1.12056285 1.11970131 1.11884413 1.11799131
 1.11714286 1.11629877 1.11545904 1.11462367 1.11379266 1.11296601
 1.11214372 1.1113258  1.11051223 1.10970303 1.10889818 1.10809769
 1.10730156 1.10650979 1.10572238 1.10493932 1.10416062 1.10338628
 1.10261629 1.10185065 1.10108937 1.10033244 1.09957986 1.09883164
 1.09808776 1.09734823 1.09661305 1.09588221 1.09515572 1.09443357
 1.09371577 1.09300231 1.09229319 1.0915884  1.09088796 1.09019185
 1.08950007 1.08881263 1.08812952 1.08745074 1.08677628 1.08610616
 1.08544035 1.08477888 1.08412172 1.08346888 1.08282035 1.08217615
 1.08153625 1.08090067 1.08026939 1.07964243 1.07901976 1.0784014
 1.07778734 1.07717758 1.07657211 1.07597094 1.07537406 1.07478146
 1.07419315 1.07360912 1.07302938 1.07245391 1.07188272 1.07131579
 1.07075314 1.07019476 1.06964064 1.06909078 1.06854517 1.06800383
 1.06746673 1.06693388 1.06640528 1.06588092 1.0653608  1.06484492
 1.06433327 1.06382584 1.06332265 1.06282367 1.06232892 1.06183838
 1.06135205 1.06086994 1.06039202 1.05991831 1.05944879 1.05898347
 1.05852234 1.05806539 1.05761263 1.05716404 1.05671963 1.05627939
 1.05584332 1.0554114  1.05498365 1.05456005 1.05414059 1.05372529
 1.05331412 1.05290709 1.05250419 1.05210543 1.05171078 1.05132025
 1.05093384 1.05055154 1.05017334 1.04979924 1.04942924 1.04906333
 1.04870151 1.04834377 1.0479901  1.04764051 1.04729498 1.04695351
 1.04661611 1.04628275 1.04595344 1.04562817 1.04530694 1.04498974
 1.04467657 1.04436742 1.04406228 1.04376115 1.04346403 1.04317091
 1.04288178 1.04259664 1.04231548 1.0420383  1.04176509 1.04149585
 1.04123057 1.04096924 1.04071187 1.04045843 1.04020893 1.03996337
 1.03972173 1.03948401 1.03925021 1.03902031 1.03879431 1.03857221
 1.038354   1.03813968 1.03792923 1.03772265 1.03751994 1.03732109
 1.03712609 1.03693493 1.03674762 1.03656414 1.03638448 1.03620865
 1.03603663 1.03586842 1.03570401 1.0355434  1.03538657 1.03523353
 1.03508426 1.03493876 1.03479702 1.03465903 1.03452479 1.03439429
 1.03426753 1.0341445  1.03402518 1.03390958 1.03379769 1.03368949
 1.03358499 1.03348417 1.03338703 1.03329357 1.03320376 1.03311762
 1.03303512 1.03295627 1.03288105 1.03280946 1.0327415  1.03267714
 1.0326164  1.03255925 1.03250569 1.03245572 1.03240932 1.0323665
 1.03232723 1.03229153 1.03225936 1.03223074 1.03220565 1.03218408
 1.03216603 1.03215149 1.03214045 1.03213291 1.03212884 1.03212826
 1.03213115 1.0321375  1.03214731 1.03216056 1.03217725 1.03219738
 1.03222093 1.03224789 1.03227826 1.03231203 1.03234919 1.03238974
 1.03243366 1.03248095 1.0325316  1.0325856  1.03264295 1.03270363
 1.03276763 1.03283496 1.0329056  1.03297954 1.03305678 1.0331373
 1.03322111 1.03330818 1.03339851 1.0334921  1.03358894 1.03368901
 1.03379231 1.03389883 1.03400856 1.0341215  1.03423763 1.03435696
 1.03447946 1.03460513 1.03473396 1.03486594 1.03500108 1.03513934
 1.03528074 1.03542526 1.03557288 1.03572361 1.03587744 1.03603435
 1.03619434 1.0363574  1.03652351 1.03669268 1.0368649  1.03704014
 1.03721842 1.03739971 1.03758401 1.03777131 1.0379616  1.03815487
 1.03835112 1.03855033 1.0387525  1.03895762 1.03916568 1.03937667
 1.03959058 1.03980741 1.04002714 1.04024976 1.04047528 1.04070367
 1.04093493 1.04116906 1.04140603 1.04164585 1.04188851 1.04213399
 1.04238229 1.04263339 1.0428873  1.043144   1.04340348 1.04366573
 1.04393075 1.04419853 1.04446905 1.04474231 1.0450183  1.04529702
 1.04557844 1.04586257 1.04614939 1.0464389  1.04673108 1.04702593
 1.04732345 1.04762361 1.04792641 1.04823185 1.04853991 1.04885059
 1.04916387 1.04947975 1.04979822 1.05011927 1.05044289 1.05076907
 1.05109781 1.05142909 1.0517629  1.05209925 1.05243811 1.05277948
 1.05312336 1.05346972 1.05381857 1.05416989 1.05452368 1.05487993
 1.05523862 1.05559975 1.05596332 1.0563293  1.0566977  1.0570685
 1.0574417  1.05781729 1.05819525 1.05857558 1.05895827 1.05934332
 1.05973071 1.06012043 1.06051248 1.06090684 1.06130352 1.06170249
 1.06210375 1.0625073  1.06291312 1.0633212  1.06373155 1.06414413
 1.06455896 1.06497602 1.0653953  1.06581679 1.06624049 1.06666638
 1.06709446 1.06752472 1.06795715 1.06839174 1.06882849 1.06926738
 1.0697084  1.07015155 1.07059682 1.0710442  1.07149368 1.07194526
 1.07239892 1.07285466 1.07331246 1.07377233 1.07423424 1.0746982
 1.07516419 1.07563221 1.07610224 1.07657429 1.07704833 1.07752437
 1.07800239 1.07848238 1.07896435 1.07944827 1.07993414 1.08042195
 1.0809117  1.08140338 1.08189697 1.08239247 1.08288987 1.08338916
 1.08389034 1.0843934  1.08489832 1.0854051  1.08591374 1.08642421
 1.08693653 1.08745067 1.08796663 1.0884844  1.08900397 1.08952534
 1.0900485  1.09057343 1.09110014 1.09162861 1.09215883 1.0926908
 1.09322451 1.09375996 1.09429712 1.094836   1.09537659 1.09591887
 1.09646285 1.09700851 1.09755585 1.09810485 1.09865552 1.09920784
 1.0997618  1.1003174  1.10087463 1.10143348 1.10199394 1.10255601
 1.10311968 1.10368494 1.10425178 1.1048202  1.10539018 1.10596173
 1.10653482 1.10710947 1.10768565 1.10826336 1.10884259 1.10942334
 1.11000559 1.11058935 1.1111746  1.11176133 1.11234954 1.11293922
 1.11353037 1.11412297 1.11471701 1.1153125  1.11590943 1.11650778
 1.11710754 1.11770872 1.11831131 1.11891529 1.11952067 1.12012742
 1.12073555 1.12134505 1.12195592 1.12256813 1.1231817  1.1237966
 1.12441284 1.12503041 1.12564929 1.12626949 1.12689099 1.12751379
 1.12813788 1.12876326 1.12938992 1.13001784 1.13064703 1.13127748
 1.13190918 1.13254212 1.13317629 1.1338117  1.13444833 1.13508618
 1.13572524 1.1363655  1.13700696 1.1376496  1.13829343 1.13893844
 1.13958462 1.14023196 1.14088046 1.14153011 1.1421809  1.14283283
 1.14348589 1.14414008 1.14479538 1.1454518  1.14610932 1.14676794
 1.14742765 1.14808845 1.14875033 1.14941328 1.1500773  1.15074239
 1.15140852 1.15207571 1.15274394 1.1534132  1.1540835  1.15475482
 1.15542716 1.15610051 1.15677486 1.15745022 1.15812657 1.15880391
 1.15948223 1.16016153 1.1608418  1.16152303 1.16220522 1.16288836
 1.16357245 1.16425748 1.16494344 1.16563034 1.16631816 1.16700689
 1.16769654 1.16838709 1.16907855 1.1697709  1.17046413 1.17115826
 1.17185326 1.17254913 1.17324587 1.17394347 1.17464193 1.17534123
 1.17604139 1.17674238 1.1774442  1.17814686 1.17885034 1.17955463
 1.18025974 1.18096566 1.18167237 1.18237989 1.18308819 1.18379728
 1.18450715 1.1852178  1.18592922 1.1866414  1.18735435 1.18806804
 1.18878249 1.18949769 1.19021362 1.19093029 1.19164768 1.19236581
 1.19308465 1.1938042  1.19452447 1.19524544 1.19596711 1.19668948
 1.19741254 1.19813628 1.19886071 1.1995858  1.20031158 1.20103801
 1.20176511 1.20249287 1.20322128 1.20395033 1.20468003 1.20541037
 1.20614134 1.20687294 1.20760516 1.20833801 1.20907147 1.20980554
 1.21054022 1.2112755  1.21201138 1.21274785 1.21348491 1.21422255
 1.21496078 1.21569958 1.21643895 1.21717889 1.2179194  1.21866046
 1.21940208 1.22014424 1.22088696 1.22163021 1.222374   1.22311833
 1.22386319 1.22460857 1.22535447 1.22610089 1.22684783 1.22759527
 1.22834322 1.22909167 1.22984062 1.23059006 1.23133999 1.23209041
 1.23284131 1.23359269 1.23434454 1.23509686 1.23584965 1.23660291
 1.23735662 1.23811079 1.23886541 1.23962047 1.24037599 1.24113194
 1.24188833 1.24264515 1.24340241 1.24416009 1.24491819 1.24567672
 1.24643566 1.24719501 1.24795477 1.24871494 1.24947551 1.25023648
 1.25099784 1.2517596  1.25252174 1.25328427 1.25404719 1.25481048
 1.25557415 1.25633819 1.2571026  1.25786737 1.25863251 1.25939801
 1.26016387 1.26093008 1.26169663 1.26246354 1.26323079 1.26399838
 1.26476631 1.26553458 1.26630318 1.2670721  1.26784136 1.26861094
 1.26938083 1.27015105 1.27092158 1.27169242 1.27246357 1.27323503
 1.27400679 1.27477886 1.27555122 1.27632387 1.27709682 1.27787006
 1.27864358 1.27941739 1.28019149 1.28096586 1.28174051 1.28251543
 1.28329063 1.28406609 1.28484182 1.28561782 1.28639407 1.28717059
 1.28794736 1.28872439 1.28950167 1.29027919 1.29105697 1.29183499
 1.29261325 1.29339176 1.2941705  1.29494948 1.29572869 1.29650813
 1.2972878  1.2980677  1.29884782 1.29962816]
t = [1.09449885e+09 1.09449893e+09 1.09449901e+09 1.09449909e+09
 1.09449918e+09 1.09449926e+09 1.09449934e+09 1.09449942e+09
 1.09449950e+09 1.09449958e+09 1.09449967e+09 1.09449975e+09
 1.09449983e+09 1.09449991e+09 1.09449999e+09 1.09450007e+09
 1.09450015e+09 1.09450024e+09 1.09450032e+09 1.09450040e+09
 1.09450048e+09 1.09450056e+09 1.09450064e+09 1.09450073e+09
 1.09450081e+09 1.09450089e+09 1.09450097e+09 1.09450105e+09
 1.09450113e+09 1.09450121e+09 1.09450130e+09 1.09450138e+09
 1.09450146e+09 1.09450154e+09 1.09450162e+09 1.09450170e+09
 1.09450179e+09 1.09450187e+09 1.09450195e+09 1.09450203e+09
 1.09450211e+09 1.09450219e+09 1.09450227e+09 1.09450236e+09
 1.09450244e+09 1.09450252e+09 1.09450260e+09 1.09450268e+09
 1.09450276e+09 1.09450285e+09 1.09450293e+09 1.09450301e+09
 1.09450309e+09 1.09450317e+09 1.09450325e+09 1.09450333e+09
 1.09450342e+09 1.09450350e+09 1.09450358e+09 1.09450366e+09
 1.09450374e+09 1.09450382e+09 1.09450391e+09 1.09450399e+09
 1.09450407e+09 1.09450415e+09 1.09450423e+09 1.09450431e+09
 1.09450439e+09 1.09450448e+09 1.09450456e+09 1.09450464e+09
 1.09450472e+09 1.09450480e+09 1.09450488e+09 1.09450497e+09
 1.09450505e+09 1.09450513e+09 1.09450521e+09 1.09450529e+09
 1.09450537e+09 1.09450545e+09 1.09450554e+09 1.09450562e+09
 1.09450570e+09 1.09450578e+09 1.09450586e+09 1.09450594e+09
 1.09450602e+09 1.09450611e+09 1.09450619e+09 1.09450627e+09
 1.09450635e+09 1.09450643e+09 1.09450651e+09 1.09450660e+09
 1.09450668e+09 1.09450676e+09 1.09450684e+09 1.09450692e+09
 1.09450700e+09 1.09450708e+09 1.09450717e+09 1.09450725e+09
 1.09450733e+09 1.09450741e+09 1.09450749e+09 1.09450757e+09
 1.09450766e+09 1.09450774e+09 1.09450782e+09 1.09450790e+09
 1.09450798e+09 1.09450806e+09 1.09450814e+09 1.09450823e+09
 1.09450831e+09 1.09450839e+09 1.09450847e+09 1.09450855e+09
 1.09450863e+09 1.09450872e+09 1.09450880e+09 1.09450888e+09
 1.09450896e+09 1.09450904e+09 1.09450912e+09 1.09450920e+09
 1.09450929e+09 1.09450937e+09 1.09450945e+09 1.09450953e+09
 1.09450961e+09 1.09450969e+09 1.09450978e+09 1.09450986e+09
 1.09450994e+09 1.09451002e+09 1.09451010e+09 1.09451018e+09
 1.09451026e+09 1.09451035e+09 1.09451043e+09 1.09451051e+09
 1.09451059e+09 1.09451067e+09 1.09451075e+09 1.09451084e+09
 1.09451092e+09 1.09451100e+09 1.09451108e+09 1.09451116e+09
 1.09451124e+09 1.09451132e+09 1.09451141e+09 1.09451149e+09
 1.09451157e+09 1.09451165e+09 1.09451173e+09 1.09451181e+09
 1.09451190e+09 1.09451198e+09 1.09451206e+09 1.09451214e+09
 1.09451222e+09 1.09451230e+09 1.09451238e+09 1.09451247e+09
 1.09451255e+09 1.09451263e+09 1.09451271e+09 1.09451279e+09
 1.09451287e+09 1.09451296e+09 1.09451304e+09 1.09451312e+09
 1.09451320e+09 1.09451328e+09 1.09451336e+09 1.09451344e+09
 1.09451353e+09 1.09451361e+09 1.09451369e+09 1.09451377e+09
 1.09451385e+09 1.09451393e+09 1.09451402e+09 1.09451410e+09
 1.09451418e+09 1.09451426e+09 1.09451434e+09 1.09451442e+09
 1.09451450e+09 1.09451459e+09 1.09451467e+09 1.09451475e+09
 1.09451483e+09 1.09451491e+09 1.09451499e+09 1.09451507e+09
 1.09451516e+09 1.09451524e+09 1.09451532e+09 1.09451540e+09
 1.09451548e+09 1.09451556e+09 1.09451565e+09 1.09451573e+09
 1.09451581e+09 1.09451589e+09 1.09451597e+09 1.09451605e+09
 1.09451613e+09 1.09451622e+09 1.09451630e+09 1.09451638e+09
 1.09451646e+09 1.09451654e+09 1.09451662e+09 1.09451671e+09
 1.09451679e+09 1.09451687e+09 1.09451695e+09 1.09451703e+09
 1.09451711e+09 1.09451719e+09 1.09451728e+09 1.09451736e+09
 1.09451744e+09 1.09451752e+09 1.09451760e+09 1.09451768e+09
 1.09451777e+09 1.09451785e+09 1.09451793e+09 1.09451801e+09
 1.09451809e+09 1.09451817e+09 1.09451825e+09 1.09451834e+09
 1.09451842e+09 1.09451850e+09 1.09451858e+09 1.09451866e+09
 1.09451874e+09 1.09451883e+09 1.09451891e+09 1.09451899e+09
 1.09451907e+09 1.09451915e+09 1.09451923e+09 1.09451931e+09
 1.09451940e+09 1.09451948e+09 1.09451956e+09 1.09451964e+09
 1.09451972e+09 1.09451980e+09 1.09451989e+09 1.09451997e+09
 1.09452005e+09 1.09452013e+09 1.09452021e+09 1.09452029e+09
 1.09452037e+09 1.09452046e+09 1.09452054e+09 1.09452062e+09
 1.09452070e+09 1.09452078e+09 1.09452086e+09 1.09452095e+09
 1.09452103e+09 1.09452111e+09 1.09452119e+09 1.09452127e+09
 1.09452135e+09 1.09452143e+09 1.09452152e+09 1.09452160e+09
 1.09452168e+09 1.09452176e+09 1.09452184e+09 1.09452192e+09
 1.09452201e+09 1.09452209e+09 1.09452217e+09 1.09452225e+09
 1.09452233e+09 1.09452241e+09 1.09452249e+09 1.09452258e+09
 1.09452266e+09 1.09452274e+09 1.09452282e+09 1.09452290e+09
 1.09452298e+09 1.09452307e+09 1.09452315e+09 1.09452323e+09
 1.09452331e+09 1.09452339e+09 1.09452347e+09 1.09452355e+09
 1.09452364e+09 1.09452372e+09 1.09452380e+09 1.09452388e+09
 1.09452396e+09 1.09452404e+09 1.09452412e+09 1.09452421e+09
 1.09452429e+09 1.09452437e+09 1.09452445e+09 1.09452453e+09
 1.09452461e+09 1.09452470e+09 1.09452478e+09 1.09452486e+09
 1.09452494e+09 1.09452502e+09 1.09452510e+09 1.09452518e+09
 1.09452527e+09 1.09452535e+09 1.09452543e+09 1.09452551e+09
 1.09452559e+09 1.09452567e+09 1.09452576e+09 1.09452584e+09
 1.09452592e+09 1.09452600e+09 1.09452608e+09 1.09452616e+09
 1.09452624e+09 1.09452633e+09 1.09452641e+09 1.09452649e+09
 1.09452657e+09 1.09452665e+09 1.09452673e+09 1.09452682e+09
 1.09452690e+09 1.09452698e+09 1.09452706e+09 1.09452714e+09
 1.09452722e+09 1.09452730e+09 1.09452739e+09 1.09452747e+09
 1.09452755e+09 1.09452763e+09 1.09452771e+09 1.09452779e+09
 1.09452788e+09 1.09452796e+09 1.09452804e+09 1.09452812e+09
 1.09452820e+09 1.09452828e+09 1.09452836e+09 1.09452845e+09
 1.09452853e+09 1.09452861e+09 1.09452869e+09 1.09452877e+09
 1.09452885e+09 1.09452894e+09 1.09452902e+09 1.09452910e+09
 1.09452918e+09 1.09452926e+09 1.09452934e+09 1.09452942e+09
 1.09452951e+09 1.09452959e+09 1.09452967e+09 1.09452975e+09
 1.09452983e+09 1.09452991e+09 1.09453000e+09 1.09453008e+09
 1.09453016e+09 1.09453024e+09 1.09453032e+09 1.09453040e+09
 1.09453048e+09 1.09453057e+09 1.09453065e+09 1.09453073e+09
 1.09453081e+09 1.09453089e+09 1.09453097e+09 1.09453106e+09
 1.09453114e+09 1.09453122e+09 1.09453130e+09 1.09453138e+09
 1.09453146e+09 1.09453154e+09 1.09453163e+09 1.09453171e+09
 1.09453179e+09 1.09453187e+09 1.09453195e+09 1.09453203e+09
 1.09453212e+09 1.09453220e+09 1.09453228e+09 1.09453236e+09
 1.09453244e+09 1.09453252e+09 1.09453260e+09 1.09453269e+09
 1.09453277e+09 1.09453285e+09 1.09453293e+09 1.09453301e+09
 1.09453309e+09 1.09453317e+09 1.09453326e+09 1.09453334e+09
 1.09453342e+09 1.09453350e+09 1.09453358e+09 1.09453366e+09
 1.09453375e+09 1.09453383e+09 1.09453391e+09 1.09453399e+09
 1.09453407e+09 1.09453415e+09 1.09453423e+09 1.09453432e+09
 1.09453440e+09 1.09453448e+09 1.09453456e+09 1.09453464e+09
 1.09453472e+09 1.09453481e+09 1.09453489e+09 1.09453497e+09
 1.09453505e+09 1.09453513e+09 1.09453521e+09 1.09453529e+09
 1.09453538e+09 1.09453546e+09 1.09453554e+09 1.09453562e+09
 1.09453570e+09 1.09453578e+09 1.09453587e+09 1.09453595e+09
 1.09453603e+09 1.09453611e+09 1.09453619e+09 1.09453627e+09
 1.09453635e+09 1.09453644e+09 1.09453652e+09 1.09453660e+09
 1.09453668e+09 1.09453676e+09 1.09453684e+09 1.09453693e+09
 1.09453701e+09 1.09453709e+09 1.09453717e+09 1.09453725e+09
 1.09453733e+09 1.09453741e+09 1.09453750e+09 1.09453758e+09
 1.09453766e+09 1.09453774e+09 1.09453782e+09 1.09453790e+09
 1.09453799e+09 1.09453807e+09 1.09453815e+09 1.09453823e+09
 1.09453831e+09 1.09453839e+09 1.09453847e+09 1.09453856e+09
 1.09453864e+09 1.09453872e+09 1.09453880e+09 1.09453888e+09
 1.09453896e+09 1.09453905e+09 1.09453913e+09 1.09453921e+09
 1.09453929e+09 1.09453937e+09 1.09453945e+09 1.09453953e+09
 1.09453962e+09 1.09453970e+09 1.09453978e+09 1.09453986e+09
 1.09453994e+09 1.09454002e+09 1.09454011e+09 1.09454019e+09
 1.09454027e+09 1.09454035e+09 1.09454043e+09 1.09454051e+09
 1.09454059e+09 1.09454068e+09 1.09454076e+09 1.09454084e+09
 1.09454092e+09 1.09454100e+09 1.09454108e+09 1.09454117e+09
 1.09454125e+09 1.09454133e+09 1.09454141e+09 1.09454149e+09
 1.09454157e+09 1.09454165e+09 1.09454174e+09 1.09454182e+09
 1.09454190e+09 1.09454198e+09 1.09454206e+09 1.09454214e+09
 1.09454222e+09 1.09454231e+09 1.09454239e+09 1.09454247e+09
 1.09454255e+09 1.09454263e+09 1.09454271e+09 1.09454280e+09
 1.09454288e+09 1.09454296e+09 1.09454304e+09 1.09454312e+09
 1.09454320e+09 1.09454328e+09 1.09454337e+09 1.09454345e+09
 1.09454353e+09 1.09454361e+09 1.09454369e+09 1.09454377e+09
 1.09454386e+09 1.09454394e+09 1.09454402e+09 1.09454410e+09
 1.09454418e+09 1.09454426e+09 1.09454434e+09 1.09454443e+09
