name =JUICE_ROI_GAN_6_1_04
flyby = ['2034 JUL 11 19:50:31', '2034 JUL 12 19:50:31']
Observation TW = <SpiceCell dtype = 1, length = 0, size = 3000, card = 10, is_set = 1, adjust = 0, init = 1, base = 94540022989072, data = 94540022989120>
Res(t) = [3.33962565 3.33587648 3.33213553 3.3284028  3.32467832 3.32096206
 3.31725404 3.31355426 3.30986272 3.30617943 3.30250439 3.29883761
 3.29517908 3.29152881 3.2878868  3.28425305 3.28062758 3.27701037
 3.27340143 3.26980078 3.26620839 3.26262429 3.25904847 3.25548092
 3.25192167 3.2483707  3.24482803 3.24129364 3.23776754 3.23424974
 3.23074023 3.22723902 3.2237461  3.22026149 3.21678517 3.21331715
 3.20985744 3.20640602 3.20296291 3.1995281  3.19610159 3.1926834
 3.1892735  3.18587191 3.18247863 3.17909365 3.17571697 3.1723486
 3.16898853 3.16563676 3.16229331 3.15895816 3.1556313  3.15231275
 3.14900251 3.14570056 3.14240691 3.13912157 3.13584452 3.13257578
 3.12931532 3.12606317 3.1228193  3.11958372 3.11635644 3.11313745
 3.10992675 3.10672433 3.1035302  3.10034435 3.09716678 3.09399749
 3.09083647 3.08768373 3.08453926 3.08140306 3.07827514 3.07515547
 3.07204406 3.06894092 3.06584603 3.0627594  3.05968103 3.0566109
 3.05354901 3.05049537 3.04744997 3.0444128  3.04138387 3.03836317
 3.03535069 3.03234645 3.02935041 3.0263626  3.02338299 3.02041159
 3.01744841 3.01449342 3.01154663 3.00860804 3.00567762 3.0027554
 2.99984136 2.9969355  2.99403781 2.99114828 2.98826692 2.98539372
 2.98252867 2.97967178 2.97682302 2.97398241 2.97114994 2.9683256
 2.96550938 2.96270128 2.9599013  2.95710943 2.95432567 2.95155001
 2.94878244 2.94602296 2.94327156 2.94052825 2.93779301 2.93506583
 2.93234672 2.92963567 2.92693266 2.9242377  2.92155078 2.9188719
 2.91620104 2.9135382  2.91088338 2.90823656 2.90559775 2.90296693
 2.90034411 2.89772927 2.89512241 2.89252351 2.88993259 2.88734961
 2.8847746  2.88220752 2.87964839 2.87709718 2.87455391 2.87201855
 2.86949109 2.86697155 2.8644599  2.86195614 2.85946026 2.85697226
 2.85449213 2.85201986 2.84955544 2.84709888 2.84465015 2.84220925
 2.83977617 2.83735092 2.83493347 2.83252383 2.83012197 2.82772791
 2.82534163 2.82296311 2.82059236 2.81822937 2.81587412 2.81352662
 2.81118684 2.80885479 2.80653046 2.80421383 2.80190491 2.79960367
 2.79731012 2.79502425 2.79274604 2.79047549 2.78821259 2.78595733
 2.78370971 2.78146971 2.77923733 2.77701255 2.77479538 2.7725858
 2.7703838  2.76818937 2.76600251 2.7638232  2.76165145 2.75948723
 2.75733054 2.75518138 2.75303973 2.75090557 2.74877892 2.74665975
 2.74454805 2.74244383 2.74034706 2.73825775 2.73617587 2.73410142
 2.7320344  2.72997479 2.72792258 2.72587777 2.72384034 2.72181029
 2.7197876  2.71777227 2.71576429 2.71376365 2.71177034 2.70978434
 2.70780566 2.70583427 2.70387018 2.70191336 2.69996382 2.69802154
 2.69608652 2.69415873 2.69223818 2.69032485 2.68841874 2.68651983
 2.68462811 2.68274358 2.68086622 2.67899602 2.67713298 2.67527709
 2.67342833 2.67158669 2.66975217 2.66792476 2.66610444 2.6642912
 2.66248504 2.66068594 2.6588939  2.65710891 2.65533095 2.65356001
 2.65179609 2.65003917 2.64828924 2.6465463  2.64481034 2.64308133
 2.64135928 2.63964417 2.637936   2.63623475 2.63454041 2.63285297
 2.63117242 2.62949876 2.62783196 2.62617203 2.62451894 2.6228727
 2.62123329 2.61960069 2.6179749  2.61635591 2.61474371 2.61313829
 2.61153963 2.60994773 2.60836257 2.60678415 2.60521245 2.60364747
 2.60208919 2.6005376  2.5989927  2.59745447 2.5959229  2.59439798
 2.5928797  2.59136805 2.58986302 2.58836459 2.58687277 2.58538753
 2.58390887 2.58243677 2.58097123 2.57951223 2.57805977 2.57661383
 2.5751744  2.57374147 2.57231503 2.57089508 2.56948159 2.56807457
 2.56667399 2.56527984 2.56389213 2.56251083 2.56113593 2.55976743
 2.55840531 2.55704957 2.55570019 2.55435716 2.55302046 2.5516901
 2.55036606 2.54904833 2.54773689 2.54643174 2.54513287 2.54384026
 2.5425539  2.54127379 2.53999991 2.53873225 2.53747081 2.53621556
 2.53496651 2.53372363 2.53248692 2.53125637 2.53003196 2.52881369
 2.52760154 2.52639551 2.52519558 2.52400174 2.52281398 2.5216323
 2.52045667 2.5192871  2.51812356 2.51696605 2.51581455 2.51466906
 2.51352957 2.51239606 2.51126852 2.51014695 2.50903133 2.50792165
 2.5068179  2.50572007 2.50462814 2.50354212 2.50246198 2.50138772
 2.50031933 2.49925679 2.49820009 2.49714923 2.49610419 2.49506496
 2.49403154 2.4930039  2.49198204 2.49096596 2.48995563 2.48895105
 2.4879522  2.48695908 2.48597168 2.48498998 2.48401398 2.48304366
 2.48207901 2.48112003 2.48016669 2.479219   2.47827693 2.47734049
 2.47640966 2.47548442 2.47456477 2.4736507  2.47274219 2.47183924
 2.47094184 2.47004997 2.46916362 2.46828279 2.46740746 2.46653762
 2.46567326 2.46481438 2.46396095 2.46311298 2.46227044 2.46143334
 2.46060165 2.45977537 2.45895449 2.45813899 2.45732888 2.45652413
 2.45572473 2.45493068 2.45414196 2.45335857 2.4525805  2.45180772
 2.45104024 2.45027804 2.44952112 2.44876946 2.44802305 2.44728188
 2.44654594 2.44581522 2.44508971 2.44436941 2.44365429 2.44294435
 2.44223959 2.44153998 2.44084552 2.4401562  2.439472   2.43879293
 2.43811896 2.43745009 2.43678631 2.43612761 2.43547397 2.43482539
 2.43418186 2.43354336 2.43290989 2.43228144 2.431658   2.43103955
 2.43042608 2.4298176  2.42921408 2.42861551 2.4280219  2.42743322
 2.42684946 2.42627062 2.42569669 2.42512766 2.42456351 2.42400424
 2.42344983 2.42290028 2.42235558 2.42181572 2.42128068 2.42075046
 2.42022505 2.41970444 2.41918861 2.41867756 2.41817128 2.41766976
 2.41717299 2.41668096 2.41619365 2.41571107 2.4152332  2.41476002
 2.41429154 2.41382774 2.41336861 2.41291414 2.41246432 2.41201915
 2.41157861 2.41114269 2.41071139 2.41028469 2.40986258 2.40944506
 2.40903212 2.40862375 2.40821993 2.40782065 2.40742592 2.40703571
 2.40665003 2.40626885 2.40589218 2.40551999 2.40515229 2.40478906
 2.40443029 2.40407598 2.40372611 2.40338067 2.40303967 2.40270308
 2.40237089 2.40204311 2.40171972 2.4014007  2.40108606 2.40077577
 2.40046985 2.40016826 2.39987101 2.39957808 2.39928947 2.39900517
 2.39872517 2.39844945 2.39817802 2.39791085 2.39764795 2.39738931
 2.3971349  2.39688474 2.3966388  2.39639707 2.39615956 2.39592625
 2.39569712 2.39547218 2.39525142 2.39503482 2.39482237 2.39461407
 2.39440991 2.39420989 2.39401398 2.39382218 2.39363449 2.39345089
 2.39327138 2.39309595 2.39292459 2.39275729 2.39259404 2.39243483
 2.39227967 2.39212852 2.3919814  2.39183828 2.39169917 2.39156405
 2.39143291 2.39130575 2.39118256 2.39106332 2.39094804 2.3908367
 2.39072929 2.39062581 2.39052625 2.39043059 2.39033884 2.39025098
 2.39016701 2.39008691 2.39001068 2.38993831 2.38986979 2.38980512
 2.38974428 2.38968727 2.38963407 2.38958469 2.38953912 2.38949734
 2.38945934 2.38942513 2.38939468 2.38936801 2.38934508 2.38932591
 2.38931047 2.38929876 2.38929078 2.38928652 2.38928596 2.38928911
 2.38929594 2.38930646 2.38932066 2.38933853 2.38936006 2.38938524
 2.38941408 2.38944654 2.38948264 2.38952237 2.3895657  2.38961265
 2.3896632  2.38971734 2.38977506 2.38983637 2.38990124 2.38996968
 2.39004167 2.39011721 2.39019629 2.3902789  2.39036504 2.3904547
 2.39054787 2.39064454 2.39074471 2.39084836 2.3909555  2.39106611
 2.39118019 2.39129773 2.39141872 2.39154316 2.39167104 2.39180234
 2.39193707 2.39207522 2.39221678 2.39236174 2.39251009 2.39266184
 2.39281696 2.39297546 2.39313733 2.39330255 2.39347113 2.39364306
 2.39381833 2.39399692 2.39417885 2.39436409 2.39455264 2.3947445
 2.39493966 2.39513811 2.39533984 2.39554486 2.39575314 2.39596469
 2.39617949 2.39639755 2.39661885 2.39684338 2.39707115 2.39730215
 2.39753636 2.39777378 2.3980144  2.39825823 2.39850524 2.39875544
 2.39900882 2.39926537 2.39952509 2.39978797 2.40005399 2.40032317
 2.40059548 2.40087093 2.4011495  2.4014312  2.40171601 2.40200393
 2.40229494 2.40258906 2.40288626 2.40318655 2.40348992 2.40379635
 2.40410585 2.40441841 2.40473402 2.40505267 2.40537437 2.4056991
 2.40602685 2.40635763 2.40669143 2.40702823 2.40736804 2.40771084
 2.40805664 2.40840542 2.40875719 2.40911192 2.40946963 2.4098303
 2.41019392 2.41056049 2.41093001 2.41130247 2.41167786 2.41205618
 2.41243742 2.41282157 2.41320864 2.41359861 2.41399148 2.41438724
 2.41478589 2.41518742 2.41559183 2.4159991  2.41640925 2.41682225
 2.41723811 2.41765681 2.41807836 2.41850274 2.41892996 2.41936001
 2.41979287 2.42022855 2.42066704 2.42110834 2.42155243 2.42199933
 2.42244901 2.42290147 2.42335671 2.42381472 2.42427551 2.42473905
 2.42520535 2.42567441 2.42614621 2.42662076 2.42709804 2.42757805
 2.42806079 2.42854625 2.42903442 2.42952531 2.43001891 2.4305152
 2.43101419 2.43151588 2.43202025 2.4325273  2.43303703 2.43354943
 2.43406449 2.43458222 2.4351026  2.43562564 2.43615132 2.43667965
 2.43721061 2.43774421 2.43828044 2.43881928 2.43936075 2.43990483
 2.44045152 2.44100082 2.44155271 2.4421072  2.44266429 2.44322395
 2.4437862  2.44435103 2.44491842 2.44548839 2.44606092 2.44663601
 2.44721365 2.44779385 2.44837659 2.44896187 2.44954968 2.45014003
 2.45073291 2.45132831 2.45192623 2.45252666 2.45312961 2.45373506
 2.45434302 2.45495347 2.45556641 2.45618185 2.45679977 2.45742017
 2.45804305 2.4586684  2.45929622 2.4599265  2.46055925 2.46119445
 2.4618321  2.46247221 2.46311475 2.46375974 2.46440716 2.46505701
 2.4657093  2.466364   2.46702113 2.46768068 2.46834263 2.469007
 2.46967377 2.47034294 2.47101451 2.47168847 2.47236482 2.47304356
 2.47372468 2.47440818 2.47509405 2.47578229 2.4764729  2.47716588
 2.47786121 2.4785589  2.47925895 2.47996134 2.48066608 2.48137316
 2.48208258 2.48279433 2.48350841 2.48422483 2.48494356 2.48566462
 2.486388   2.48711369 2.48784169 2.48857199 2.4893046  2.49003951
 2.49077672 2.49151623 2.49225802 2.4930021  2.49374846 2.49449711
 2.49524803 2.49600122 2.49675669 2.49751443 2.49827443 2.49903669
 2.49980121 2.50056798 2.50133701 2.50210828 2.50288181 2.50365757
 2.50443557 2.50521581 2.50599829 2.50678299 2.50756993 2.50835909
 2.50915046 2.50994406 2.51073988 2.51153791 2.51233815 2.51314059
 2.51394524 2.5147521  2.51556115 2.51637239 2.51718584 2.51800147
 2.51881929 2.51963929 2.52046148 2.52128585 2.52211239 2.52294111
 2.523772   2.52460506 2.52544029 2.52627768 2.52711724 2.52795895
 2.52880282 2.52964884 2.53049701 2.53134734 2.5321998  2.53305442
 2.53391117 2.53477007 2.5356311  2.53649426 2.53735956 2.53822699
 2.53909654 2.53996822 2.54084202 2.54171795 2.54259599 2.54347614
 2.54435841 2.5452428  2.54612929 2.54701789 2.54790859 2.5488014
 2.5496963  2.55059331 2.55149241 2.55239361 2.5532969  2.55420227
 2.55510974 2.55601929 2.55693093 2.55784465 2.55876045 2.55967833
 2.56059829 2.56152031 2.56244442 2.56337059 2.56429883 2.56522914
 2.56616151 2.56709595 2.56803245 2.56897101 2.56991162 2.5708543
 2.57179902 2.5727458  2.57369463 2.57464552 2.57559844 2.57655342
 2.57751044 2.5784695  2.5794306  2.58039375 2.58135893 2.58232614
 2.5832954  2.58426668 2.58524    2.58621535 2.58719273 2.58817214
 2.58915357 2.59013702 2.59112251 2.59211001 2.59309953 2.59409107
 2.59508464 2.59608021 2.59707781 2.59807741 2.59907903 2.60008267
 2.60108831 2.60209596 2.60310562 2.60411729 2.60513096 2.60614664
 2.60716432 2.608184   2.60920568 2.61022937 2.61125505 2.61228273
 2.61331241 2.61434408 2.61537775 2.61641342 2.61745107 2.61849072
 2.61953236 2.62057599 2.62162161 2.62266922 2.62371882 2.6247704
 2.62582397 2.62687953 2.62793707 2.62899659 2.6300581  2.63112159
 2.63218706 2.63325451 2.63432394 2.63539535]
t = [1.08955135e+09 1.08955142e+09 1.08955149e+09 1.08955155e+09
 1.08955162e+09 1.08955169e+09 1.08955175e+09 1.08955182e+09
 1.08955189e+09 1.08955196e+09 1.08955202e+09 1.08955209e+09
 1.08955216e+09 1.08955223e+09 1.08955229e+09 1.08955236e+09
 1.08955243e+09 1.08955250e+09 1.08955256e+09 1.08955263e+09
 1.08955270e+09 1.08955277e+09 1.08955283e+09 1.08955290e+09
 1.08955297e+09 1.08955304e+09 1.08955310e+09 1.08955317e+09
 1.08955324e+09 1.08955331e+09 1.08955337e+09 1.08955344e+09
 1.08955351e+09 1.08955357e+09 1.08955364e+09 1.08955371e+09
 1.08955378e+09 1.08955384e+09 1.08955391e+09 1.08955398e+09
 1.08955405e+09 1.08955411e+09 1.08955418e+09 1.08955425e+09
 1.08955432e+09 1.08955438e+09 1.08955445e+09 1.08955452e+09
 1.08955459e+09 1.08955465e+09 1.08955472e+09 1.08955479e+09
 1.08955486e+09 1.08955492e+09 1.08955499e+09 1.08955506e+09
 1.08955513e+09 1.08955519e+09 1.08955526e+09 1.08955533e+09
 1.08955540e+09 1.08955546e+09 1.08955553e+09 1.08955560e+09
 1.08955566e+09 1.08955573e+09 1.08955580e+09 1.08955587e+09
 1.08955593e+09 1.08955600e+09 1.08955607e+09 1.08955614e+09
 1.08955620e+09 1.08955627e+09 1.08955634e+09 1.08955641e+09
 1.08955647e+09 1.08955654e+09 1.08955661e+09 1.08955668e+09
 1.08955674e+09 1.08955681e+09 1.08955688e+09 1.08955695e+09
 1.08955701e+09 1.08955708e+09 1.08955715e+09 1.08955722e+09
 1.08955728e+09 1.08955735e+09 1.08955742e+09 1.08955749e+09
 1.08955755e+09 1.08955762e+09 1.08955769e+09 1.08955775e+09
 1.08955782e+09 1.08955789e+09 1.08955796e+09 1.08955802e+09
 1.08955809e+09 1.08955816e+09 1.08955823e+09 1.08955829e+09
 1.08955836e+09 1.08955843e+09 1.08955850e+09 1.08955856e+09
 1.08955863e+09 1.08955870e+09 1.08955877e+09 1.08955883e+09
 1.08955890e+09 1.08955897e+09 1.08955904e+09 1.08955910e+09
 1.08955917e+09 1.08955924e+09 1.08955931e+09 1.08955937e+09
 1.08955944e+09 1.08955951e+09 1.08955958e+09 1.08955964e+09
 1.08955971e+09 1.08955978e+09 1.08955984e+09 1.08955991e+09
 1.08955998e+09 1.08956005e+09 1.08956011e+09 1.08956018e+09
 1.08956025e+09 1.08956032e+09 1.08956038e+09 1.08956045e+09
 1.08956052e+09 1.08956059e+09 1.08956065e+09 1.08956072e+09
 1.08956079e+09 1.08956086e+09 1.08956092e+09 1.08956099e+09
 1.08956106e+09 1.08956113e+09 1.08956119e+09 1.08956126e+09
 1.08956133e+09 1.08956140e+09 1.08956146e+09 1.08956153e+09
 1.08956160e+09 1.08956167e+09 1.08956173e+09 1.08956180e+09
 1.08956187e+09 1.08956193e+09 1.08956200e+09 1.08956207e+09
 1.08956214e+09 1.08956220e+09 1.08956227e+09 1.08956234e+09
 1.08956241e+09 1.08956247e+09 1.08956254e+09 1.08956261e+09
 1.08956268e+09 1.08956274e+09 1.08956281e+09 1.08956288e+09
 1.08956295e+09 1.08956301e+09 1.08956308e+09 1.08956315e+09
 1.08956322e+09 1.08956328e+09 1.08956335e+09 1.08956342e+09
 1.08956349e+09 1.08956355e+09 1.08956362e+09 1.08956369e+09
 1.08956375e+09 1.08956382e+09 1.08956389e+09 1.08956396e+09
 1.08956402e+09 1.08956409e+09 1.08956416e+09 1.08956423e+09
 1.08956429e+09 1.08956436e+09 1.08956443e+09 1.08956450e+09
 1.08956456e+09 1.08956463e+09 1.08956470e+09 1.08956477e+09
 1.08956483e+09 1.08956490e+09 1.08956497e+09 1.08956504e+09
 1.08956510e+09 1.08956517e+09 1.08956524e+09 1.08956531e+09
 1.08956537e+09 1.08956544e+09 1.08956551e+09 1.08956558e+09
 1.08956564e+09 1.08956571e+09 1.08956578e+09 1.08956584e+09
 1.08956591e+09 1.08956598e+09 1.08956605e+09 1.08956611e+09
 1.08956618e+09 1.08956625e+09 1.08956632e+09 1.08956638e+09
 1.08956645e+09 1.08956652e+09 1.08956659e+09 1.08956665e+09
 1.08956672e+09 1.08956679e+09 1.08956686e+09 1.08956692e+09
 1.08956699e+09 1.08956706e+09 1.08956713e+09 1.08956719e+09
 1.08956726e+09 1.08956733e+09 1.08956740e+09 1.08956746e+09
 1.08956753e+09 1.08956760e+09 1.08956767e+09 1.08956773e+09
 1.08956780e+09 1.08956787e+09 1.08956793e+09 1.08956800e+09
 1.08956807e+09 1.08956814e+09 1.08956820e+09 1.08956827e+09
 1.08956834e+09 1.08956841e+09 1.08956847e+09 1.08956854e+09
 1.08956861e+09 1.08956868e+09 1.08956874e+09 1.08956881e+09
 1.08956888e+09 1.08956895e+09 1.08956901e+09 1.08956908e+09
 1.08956915e+09 1.08956922e+09 1.08956928e+09 1.08956935e+09
 1.08956942e+09 1.08956949e+09 1.08956955e+09 1.08956962e+09
 1.08956969e+09 1.08956976e+09 1.08956982e+09 1.08956989e+09
 1.08956996e+09 1.08957002e+09 1.08957009e+09 1.08957016e+09
 1.08957023e+09 1.08957029e+09 1.08957036e+09 1.08957043e+09
 1.08957050e+09 1.08957056e+09 1.08957063e+09 1.08957070e+09
 1.08957077e+09 1.08957083e+09 1.08957090e+09 1.08957097e+09
 1.08957104e+09 1.08957110e+09 1.08957117e+09 1.08957124e+09
 1.08957131e+09 1.08957137e+09 1.08957144e+09 1.08957151e+09
 1.08957158e+09 1.08957164e+09 1.08957171e+09 1.08957178e+09
 1.08957185e+09 1.08957191e+09 1.08957198e+09 1.08957205e+09
 1.08957211e+09 1.08957218e+09 1.08957225e+09 1.08957232e+09
 1.08957238e+09 1.08957245e+09 1.08957252e+09 1.08957259e+09
 1.08957265e+09 1.08957272e+09 1.08957279e+09 1.08957286e+09
 1.08957292e+09 1.08957299e+09 1.08957306e+09 1.08957313e+09
 1.08957319e+09 1.08957326e+09 1.08957333e+09 1.08957340e+09
 1.08957346e+09 1.08957353e+09 1.08957360e+09 1.08957367e+09
 1.08957373e+09 1.08957380e+09 1.08957387e+09 1.08957394e+09
 1.08957400e+09 1.08957407e+09 1.08957414e+09 1.08957420e+09
 1.08957427e+09 1.08957434e+09 1.08957441e+09 1.08957447e+09
 1.08957454e+09 1.08957461e+09 1.08957468e+09 1.08957474e+09
 1.08957481e+09 1.08957488e+09 1.08957495e+09 1.08957501e+09
 1.08957508e+09 1.08957515e+09 1.08957522e+09 1.08957528e+09
 1.08957535e+09 1.08957542e+09 1.08957549e+09 1.08957555e+09
 1.08957562e+09 1.08957569e+09 1.08957576e+09 1.08957582e+09
 1.08957589e+09 1.08957596e+09 1.08957602e+09 1.08957609e+09
 1.08957616e+09 1.08957623e+09 1.08957629e+09 1.08957636e+09
 1.08957643e+09 1.08957650e+09 1.08957656e+09 1.08957663e+09
 1.08957670e+09 1.08957677e+09 1.08957683e+09 1.08957690e+09
 1.08957697e+09 1.08957704e+09 1.08957710e+09 1.08957717e+09
 1.08957724e+09 1.08957731e+09 1.08957737e+09 1.08957744e+09
 1.08957751e+09 1.08957758e+09 1.08957764e+09 1.08957771e+09
 1.08957778e+09 1.08957785e+09 1.08957791e+09 1.08957798e+09
 1.08957805e+09 1.08957811e+09 1.08957818e+09 1.08957825e+09
 1.08957832e+09 1.08957838e+09 1.08957845e+09 1.08957852e+09
 1.08957859e+09 1.08957865e+09 1.08957872e+09 1.08957879e+09
 1.08957886e+09 1.08957892e+09 1.08957899e+09 1.08957906e+09
 1.08957913e+09 1.08957919e+09 1.08957926e+09 1.08957933e+09
 1.08957940e+09 1.08957946e+09 1.08957953e+09 1.08957960e+09
 1.08957967e+09 1.08957973e+09 1.08957980e+09 1.08957987e+09
 1.08957994e+09 1.08958000e+09 1.08958007e+09 1.08958014e+09
 1.08958020e+09 1.08958027e+09 1.08958034e+09 1.08958041e+09
 1.08958047e+09 1.08958054e+09 1.08958061e+09 1.08958068e+09
 1.08958074e+09 1.08958081e+09 1.08958088e+09 1.08958095e+09
 1.08958101e+09 1.08958108e+09 1.08958115e+09 1.08958122e+09
 1.08958128e+09 1.08958135e+09 1.08958142e+09 1.08958149e+09
 1.08958155e+09 1.08958162e+09 1.08958169e+09 1.08958176e+09
 1.08958182e+09 1.08958189e+09 1.08958196e+09 1.08958203e+09
 1.08958209e+09 1.08958216e+09 1.08958223e+09 1.08958229e+09
 1.08958236e+09 1.08958243e+09 1.08958250e+09 1.08958256e+09
 1.08958263e+09 1.08958270e+09 1.08958277e+09 1.08958283e+09
 1.08958290e+09 1.08958297e+09 1.08958304e+09 1.08958310e+09
 1.08958317e+09 1.08958324e+09 1.08958331e+09 1.08958337e+09
 1.08958344e+09 1.08958351e+09 1.08958358e+09 1.08958364e+09
 1.08958371e+09 1.08958378e+09 1.08958385e+09 1.08958391e+09
 1.08958398e+09 1.08958405e+09 1.08958412e+09 1.08958418e+09
 1.08958425e+09 1.08958432e+09 1.08958438e+09 1.08958445e+09
 1.08958452e+09 1.08958459e+09 1.08958465e+09 1.08958472e+09
 1.08958479e+09 1.08958486e+09 1.08958492e+09 1.08958499e+09
 1.08958506e+09 1.08958513e+09 1.08958519e+09 1.08958526e+09
 1.08958533e+09 1.08958540e+09 1.08958546e+09 1.08958553e+09
 1.08958560e+09 1.08958567e+09 1.08958573e+09 1.08958580e+09
 1.08958587e+09 1.08958594e+09 1.08958600e+09 1.08958607e+09
 1.08958614e+09 1.08958620e+09 1.08958627e+09 1.08958634e+09
 1.08958641e+09 1.08958647e+09 1.08958654e+09 1.08958661e+09
 1.08958668e+09 1.08958674e+09 1.08958681e+09 1.08958688e+09
 1.08958695e+09 1.08958701e+09 1.08958708e+09 1.08958715e+09
 1.08958722e+09 1.08958728e+09 1.08958735e+09 1.08958742e+09
 1.08958749e+09 1.08958755e+09 1.08958762e+09 1.08958769e+09
 1.08958776e+09 1.08958782e+09 1.08958789e+09 1.08958796e+09
 1.08958803e+09 1.08958809e+09 1.08958816e+09 1.08958823e+09
 1.08958829e+09 1.08958836e+09 1.08958843e+09 1.08958850e+09
 1.08958856e+09 1.08958863e+09 1.08958870e+09 1.08958877e+09
 1.08958883e+09 1.08958890e+09 1.08958897e+09 1.08958904e+09
 1.08958910e+09 1.08958917e+09 1.08958924e+09 1.08958931e+09
