name =JUICE_ROI_GAN_6_1_08
flyby = ['2033 NOV 26 18:22:11', '2033 NOV 27 18:22:11']
Observation TW = <SpiceCell dtype = 1, length = 0, size = 2400, card = 4, is_set = 1, adjust = 0, init = 1, base = 94216805483584, data = 94216805483632>
Res(t) = [0.33244509 0.32882081 0.32597093 0.32371822 0.32194086 0.28592651
 0.28638908 0.28692866 0.28754024 0.2882192  0.2889613  0.28976266
 0.29061969 0.29152909 0.2924878  0.29349301 0.3047373  0.30566161
 0.30663561 0.3076564  0.30872127 0.30982777 0.31097357 0.31215655
 0.31337471 0.31462622 0.31590934 0.31722248 0.31856412 0.31993287
 0.32132741 0.32274651 0.324189   0.32565381 0.32713991 0.32864634
 0.33017219 0.3317166  0.33327878 0.33485795 0.3364534  0.33806444
 0.33969043 0.34133076 0.34298484 0.34465213 0.3463321  0.34802425
 0.34972812 0.35144325 0.35316922 0.35490561 0.35665205 0.35840814
 0.36017356 0.36194794 0.36373098 0.36552237 0.3673218  0.369129
 0.37094369 0.37276562 0.37459454 0.37643021 0.37827241 0.38012091
 0.38197551 0.38383599 0.38570218 0.38757389 0.38945093 0.39133313
 0.39322033 0.39511236 0.39700909 0.39891035 0.400816   0.40272592
 0.40463996 0.406558   0.40847992 0.4104056  0.41233492 0.41426777
 0.41620406 0.41814366 0.42008649 0.42203245 0.42398144 0.42593339
 0.42788818 0.42984576 0.43180602 0.43376891 0.43573433 0.43770221
 0.43967249 0.44164509 0.44361995 0.445597   0.44757618 0.44955742
 0.45154067 0.45352588 0.45551298 0.45750192 0.45949265 0.46148511
 0.46347927 0.46547506 0.46747245 0.46947139 0.47147183 0.47347373
 0.47547705 0.47748175 0.47948778 0.48149513 0.48350373 0.48551356
 0.48752459 0.48953677 0.49155008 0.49356449 0.49557995 0.49759645
 0.49961395 0.50163241 0.50365183 0.50567215 0.50769337 0.50971545
 0.51173837 0.5137621  0.51578662 0.5178119  0.51983793 0.52186468
 0.52389212 0.52592024 0.52794901 0.52997842 0.53200845 0.53403907
 0.53607027 0.53810203 0.54013432 0.54216715 0.54420048 0.5462343
 0.54826859 0.55030334 0.55233854 0.55437416 0.55641019 0.55844663
 0.56048344 0.56252063 0.56455818 0.56659607 0.56863429 0.57067283
 0.57271168 0.57475082 0.57679024 0.57882994 0.5808699  0.58291011
 0.58495056 0.58699123 0.58903213 0.59107324 0.59311454 0.59515604
 0.59719772 0.59923957 0.60128158 0.60332375 0.60536606 0.60740851
 0.60945109 0.6114938  0.61353662 0.61557954 0.61762257 0.61966569
 0.62170889 0.62375218 0.62579553 0.62783895 0.62988244 0.63192597
 0.63396955 0.63601317 0.63805683 0.64010052 0.64214423 0.64418796
 0.6462317  0.64827545 0.6503192  0.65236296 0.6544067  0.65645043
 0.65849415 0.66053785 0.66258152 0.66462516 0.66666877 0.66871234
 0.67075587 0.67279935 0.67484279 0.67688617 0.67892949 0.68097275
 0.68301595 0.68505908 0.68710214 0.68914513 0.69118804 0.69323087
 0.69527362 0.69731628 0.69935885 0.70140133 0.70344371 0.705486
 0.70752818 0.70957027 0.71161225 0.71365412 0.71569588 0.71773753
 0.71977907 0.72182049 0.72386179 0.72590297 0.72794403 0.72998496
 0.73202577 0.73406645 0.73610699 0.73814741 0.74018769 0.74222784
 0.74426785 0.74630772 0.74834745 0.75038704 0.75242649 0.75446579
 0.75650495 0.75854396 0.76058282 0.76262153 0.76466009 0.7666985
 0.76873676 0.77077486 0.7728128  0.77485059 0.77688823 0.7789257
 0.78096302 0.78300018 0.78503717 0.78707401 0.78911068 0.79114719
 0.79318354 0.79521972 0.79725574 0.79929159 0.80132727 0.80336279
 0.80539814 0.80743332 0.80946833 0.81150318 0.81353786 0.81557236
 0.8176067  0.81964086 0.82167486 0.82370868 0.82574233 0.82777582
 0.82980912 0.83184226 0.83387523 0.83590802 0.83794064 0.83997308
 0.84200536 0.84403746 0.84606938 0.84810114 0.85013272 0.85216413
 0.85419536 0.85622642 0.85825731 0.86028803 0.86231857 0.86434894
 0.86637913 0.86840916 0.87043901 0.87246869 0.87449819 0.87652752
 0.87855669 0.88058568 0.8826145  0.88464314 0.88667162 0.88869993
 0.89072806 0.89275603 0.89478382 0.89681145 0.8988389  0.90086619
 0.90289331 0.90492026 0.90694705 0.90897366 0.91100011 0.9130264
 0.91505251 0.91707846 0.91910425 0.92112987 0.92315533 0.92518063
 0.92720576 0.92923073 0.93125553 0.93328018 0.93530466 0.93732899
 0.93935315 0.94137716 0.943401   0.94542469 0.94744822 0.94947159
 0.95149481 0.95351787 0.95554078 0.95756353 0.95958613 0.96160857
 0.96363087 0.96565301 0.967675   0.96969684 0.97171853 0.97374007
 0.97576147 0.97778271 0.97980381 0.98182477 0.98384557 0.98586624
 0.98788676 0.98990714 0.99192737 0.99394746 0.99596742 0.99798723
 1.00000691 1.00202644 1.00404584 1.00606511 1.00808423 1.01010322
 1.01212208 1.01414081 1.0161594  1.01817786 1.02019619 1.02221439
 1.02423247 1.02625041 1.02826823 1.03028592 1.03230348 1.03432093
 1.03633824 1.03835544 1.04037251 1.04238947 1.0444063  1.04642301
 1.04843961 1.05045609 1.05247245 1.0544887  1.05650484 1.05852086
 1.06053677 1.06255257 1.06456825 1.06658383 1.0685993  1.07061466
 1.07262992 1.07464507 1.07666012 1.07867506 1.0806899  1.08270464
 1.08471928 1.08673382 1.08874826 1.0907626  1.09277685 1.094791
 1.09680506 1.09881902 1.1008329  1.10284668 1.10486037 1.10687397
 1.10888749 1.11090091 1.11291426 1.11492751 1.11694069 1.11895378
 1.12096678 1.12297971 1.12499256 1.12700533 1.12901803 1.13103064
 1.13304318 1.13505565 1.13706805 1.13908037 1.14109262 1.1431048
 1.14511692 1.14712896 1.14914094 1.15115286 1.15316471 1.15517649
 1.15718822 1.15919988 1.16121149 1.16322303 1.16523452 1.16724596
 1.16925733 1.17126866 1.17327993 1.17529114 1.17730231 1.17931343
 1.1813245  1.18333552 1.1853465  1.18735743 1.18936832 1.19137916
 1.19338996 1.19540073 1.19741145 1.19942213 1.20143278 1.2034434
 1.20545397 1.20746452 1.20947503 1.21148551 1.21349596 1.21550639
 1.21751678 1.21952715 1.2215375  1.22354781 1.22555811 1.22756839
 1.22957864 1.23158888 1.23359909 1.23560929 1.23761948 1.23962965
 1.2416398  1.24364995 1.24566008 1.2476702  1.24968032 1.25169042
 1.25370052 1.25571062 1.25772071 1.2597308  1.26174089 1.26375098
 1.26576106 1.26777116 1.26978125 1.27179135 1.27380145 1.27581156
 1.27782168 1.27983181 1.28184195 1.2838521  1.28586227 1.28787245
 1.28988264 1.29189285 1.29390308 1.29591333 1.2979236  1.29993389
 1.3019442  1.30395454 1.3059649  1.30797529 1.3099857  1.31199615
 1.31400662 1.31601713 1.31802767 1.32003824 1.32204885 1.32405949
 1.32607017 1.32808089 1.33009165 1.33210246 1.3341133  1.33612419
 1.33813512 1.3401461  1.34215713 1.3441682  1.34617933 1.3481905
 1.35020173 1.35221301 1.35422435 1.35623574 1.35824719 1.3602587
 1.36227027 1.3642819  1.36629359 1.36830535 1.37031717 1.37232905
 1.37434101 1.37635303 1.37836512 1.38037728 1.38238952 1.38440183
 1.38641421 1.38842667 1.3904392  1.39245182 1.39446451 1.39647729
 1.39849015 1.40050309 1.40251612 1.40452923 1.40654243 1.40855572
 1.41056909 1.41258256 1.41459613 1.41660978 1.41862353 1.42063738
 1.42265132 1.42466536 1.4266795  1.42869375 1.43070809 1.43272254
 1.43473709 1.43675175 1.43876652 1.4407814  1.44279638 1.44481148
 1.44682669 1.44884201 1.45085745 1.452873   1.45488868 1.45690447
 1.45892038 1.46093641 1.46295256 1.46496884 1.46698524 1.46900177
 1.47101843 1.47303522 1.47505213 1.47706918 1.47908636 1.48110367
 1.48312112 1.48513871 1.48715643 1.48917429 1.4911923  1.49321044
 1.49522873 1.49724716 1.49926573 1.50128446 1.50330333 1.50532235
 1.50734152 1.50936084 1.51138031 1.51339994 1.51541973 1.51743967
 1.51945977 1.52148002 1.52350044 1.52552102 1.52754177 1.52956267
 1.53158375 1.53360499 1.53562639 1.53764797 1.53966972 1.54169164
 1.54371373 1.545736   1.54775844 1.54978106 1.55180386 1.55382684
 1.55585    1.55787334 1.55989686 1.56192057 1.56394447 1.56596855
 1.56799282 1.57001728 1.57204193 1.57406677 1.57609181 1.57811704
 1.58014247 1.58216809 1.58419391 1.58621993 1.58824616 1.59027258
 1.59229921 1.59432605 1.59635309 1.59838034 1.60040779 1.60243546
 1.60446334 1.60649143 1.60851973 1.61054825 1.61257699 1.61460594
 1.61663511 1.6186645  1.62069412 1.62272395 1.62475401 1.6267843
 1.62881481 1.63084555 1.63287651 1.63490771 1.63693914 1.6389708
 1.6410027  1.64303483 1.6450672  1.64709981 1.64913265 1.65116574
 1.65319906 1.65523263 1.65726645 1.65930051 1.66133481 1.66336937
 1.66540417 1.66743922 1.66947453 1.67151009 1.6735459  1.67558197
 1.67761829 1.67965487 1.68169172 1.68372882 1.68576618 1.68780381
 1.6898417  1.69187986 1.69391829 1.69595698 1.69799594 1.70003518
 1.70207468 1.70411446 1.70615451 1.70819484 1.71023545 1.71227633
 1.71431749 1.71635894 1.71840066 1.72044267 1.72248497 1.72452755
 1.72657041 1.72861357 1.73065701 1.73270075 1.73474478 1.7367891
 1.73883371 1.74087862 1.74292383 1.74496934 1.74701515 1.74906125
 1.75110766 1.75315438 1.7552014  1.75724872 1.75929635 1.76134429
 1.76339254 1.7654411  1.76748997 1.76953916 1.77158866 1.77363848
 1.77568861 1.77773907 1.77978984 1.78184093 1.78389235 1.78594409
 1.78799615 1.79004854 1.79210126 1.79415431 1.79620768 1.79826139
 1.80031543 1.8023698  1.80442451 1.80647955 1.80853494 1.81059066
 1.81264672 1.81470312 1.81675986 1.81881695 1.82087438 1.82293215
 1.82499028 1.82704875 1.82910758 1.83116675 1.83322628 1.83528616
 1.83734639 1.83940698 1.84146793 1.84352924 1.8455909  1.84765293
 1.84971532 1.85177808 1.85384119 1.85590468 1.85796853 1.86003275
 1.86209734 1.8641623  1.86622763 1.86829334 1.87035942 1.87242588
 1.87449272 1.87655993 1.87862752 1.8806955  1.88276385 1.88483259
 1.88690172 1.88897123 1.89104112 1.89311141 1.89518208 1.89725315
 1.89932461 1.90139646 1.90346871 1.90554135 1.90761439 1.90968783
 1.91176166 1.9138359  1.91591054 1.91798558 1.92006103 1.92213689
 1.92421315 1.92628981 1.92836689 1.93044438 1.93252228 1.9346006
 1.93667933 1.93875847 1.94083803 1.94291801 1.94499841 1.94707923
 1.94916047 1.95124213 1.95332422 1.95540673 1.95748967 1.95957304
 1.96165684 1.96374106 1.96582572 1.96791082 1.96999634 1.9720823
 1.9741687  1.97625554 1.97834281 1.98043053 1.98251868 1.98460728
 1.98669633 1.98878582 1.99087575 1.99296613 1.99505696 1.99714824
 1.99923998 2.00133216 2.0034248  2.00551789 2.00761144 2.00970545
 2.01179992 2.01389484 2.01599023 2.01808608 2.02018239 2.02227917
 2.02437641 2.02647412 2.0285723  2.03067095 2.03277007 2.03486966
 2.03696972 2.03907026 2.04117128 2.04327277 2.04537474 2.04747719
 2.04958012 2.05168353 2.05378742 2.0558918  2.05799666 2.06010201
 2.06220785 2.06431418 2.066421   2.06852831 2.07063611 2.0727444
 2.0748532  2.07696248 2.07907227 2.08118255 2.08329334 2.08540462
 2.08751641 2.0896287  2.09174149 2.0938548  2.0959686  2.09808292
 2.10019775 2.10231309 2.10442894 2.1065453  2.10866218 2.11077957
 2.11289748 2.11501591 2.11713486 2.11925433 2.12137432 2.12349483
 2.12561586 2.12773743 2.12985952 2.13198213 2.13410528 2.13622895
 2.13835316 2.1404779  2.14260317 2.14472898 2.14685533 2.14898221
 2.15110963 2.15323759 2.15536609 2.15749513 2.15962472 2.16175485
 2.16388552 2.16601675 2.16814852 2.17028084 2.17241371 2.17454714
 2.17668111 2.17881564 2.18095073 2.18308637 2.18522257 2.18735933
 2.18949665 2.19163453 2.19377297 2.19591197 2.19805154 2.20019168
 2.20233239 2.20447366 2.2066155  2.20875791 2.2109009  2.21304445
 2.21518859 2.21733329 2.21947858 2.22162444 2.22377088 2.22591791
 2.22806551 2.23021369 2.23236246 2.23451182 2.23666176 2.23881229
 2.24096341 2.24311511 2.24526741 2.2474203  2.24957378 2.25172786
 2.25388253 2.2560378  2.25819367 2.26035014 2.26250721 2.26466488
 2.26682315 2.26898203 2.27114151 2.27330159 2.27546229 2.27762359
 2.27978551 2.28194803 2.28411117 2.28627492]
t = [1.06996044e+09 1.06996048e+09 1.06996052e+09 1.06996056e+09
 1.06996060e+09 1.06996064e+09 1.06996068e+09 1.06996072e+09
 1.06996076e+09 1.06996080e+09 1.06996084e+09 1.06996088e+09
 1.06996092e+09 1.06996096e+09 1.06996100e+09 1.06996104e+09
 1.06996108e+09 1.06996112e+09 1.06996116e+09 1.06996120e+09
 1.06996124e+09 1.06996128e+09 1.06996132e+09 1.06996136e+09
 1.06996140e+09 1.06996144e+09 1.06996148e+09 1.06996152e+09
 1.06996156e+09 1.06996160e+09 1.06996164e+09 1.06996168e+09
 1.06996172e+09 1.06996176e+09 1.06996180e+09 1.06996184e+09
 1.06996188e+09 1.06996193e+09 1.06996197e+09 1.06996201e+09
 1.06996205e+09 1.06996209e+09 1.06996213e+09 1.06996217e+09
 1.06996221e+09 1.06996225e+09 1.06996229e+09 1.06996233e+09
 1.06996237e+09 1.06996241e+09 1.06996245e+09 1.06996249e+09
 1.06996253e+09 1.06996257e+09 1.06996261e+09 1.06996265e+09
 1.06996269e+09 1.06996273e+09 1.06996277e+09 1.06996281e+09
 1.06996285e+09 1.06996289e+09 1.06996293e+09 1.06996297e+09
 1.06996301e+09 1.06996305e+09 1.06996309e+09 1.06996313e+09
 1.06996317e+09 1.06996321e+09 1.06996325e+09 1.06996329e+09
 1.06996333e+09 1.06996337e+09 1.06996341e+09 1.06996345e+09
 1.06996349e+09 1.06996353e+09 1.06996357e+09 1.06996361e+09
 1.06996365e+09 1.06996369e+09 1.06996373e+09 1.06996377e+09
 1.06996381e+09 1.06996385e+09 1.06996390e+09 1.06996394e+09
 1.06996398e+09 1.06996402e+09 1.06996406e+09 1.06996410e+09
 1.06996414e+09 1.06996418e+09 1.06996422e+09 1.06996426e+09
 1.06996430e+09 1.06996434e+09 1.06996438e+09 1.06996442e+09
 1.06996446e+09 1.06996450e+09 1.06996454e+09 1.06996458e+09
 1.06996462e+09 1.06996466e+09 1.06996470e+09 1.06996474e+09
 1.06996478e+09 1.06996482e+09 1.06996486e+09 1.06996490e+09
 1.06996494e+09 1.06996498e+09 1.06996502e+09 1.06996506e+09
 1.06996510e+09 1.06996514e+09 1.06996518e+09 1.06996522e+09
 1.06996526e+09 1.06996530e+09 1.06996534e+09 1.06996538e+09
 1.06996542e+09 1.06996546e+09 1.06996550e+09 1.06996554e+09
 1.06996558e+09 1.06996562e+09 1.06996566e+09 1.06996570e+09
 1.06996574e+09 1.06996578e+09 1.06996582e+09 1.06996587e+09
 1.06996591e+09 1.06996595e+09 1.06996599e+09 1.06996603e+09
 1.06996607e+09 1.06996611e+09 1.06996615e+09 1.06996619e+09
 1.06996623e+09 1.06996627e+09 1.06996631e+09 1.06996635e+09
 1.06996639e+09 1.06996643e+09 1.06996647e+09 1.06996651e+09
 1.06996655e+09 1.06996659e+09 1.06996663e+09 1.06996667e+09
 1.06996671e+09 1.06996675e+09 1.06996679e+09 1.06996683e+09
 1.06996687e+09 1.06996691e+09 1.06996695e+09 1.06996699e+09
 1.06996703e+09 1.06996707e+09 1.06996711e+09 1.06996715e+09
 1.06996719e+09 1.06996723e+09 1.06996727e+09 1.06996731e+09
 1.06996735e+09 1.06996739e+09 1.06996743e+09 1.06996747e+09
 1.06996751e+09 1.06996755e+09 1.06996759e+09 1.06996763e+09
 1.06996767e+09 1.06996771e+09 1.06996775e+09 1.06996779e+09
 1.06996783e+09 1.06996788e+09 1.06996792e+09 1.06996796e+09
 1.06996800e+09 1.06996804e+09 1.06996808e+09 1.06996812e+09
 1.06996816e+09 1.06996820e+09 1.06996824e+09 1.06996828e+09
 1.06996832e+09 1.06996836e+09 1.06996840e+09 1.06996844e+09
 1.06996848e+09 1.06996852e+09 1.06996856e+09 1.06996860e+09
 1.06996864e+09 1.06996868e+09 1.06996872e+09 1.06996876e+09
 1.06996880e+09 1.06996884e+09 1.06996888e+09 1.06996892e+09
 1.06996896e+09 1.06996900e+09 1.06996904e+09 1.06996908e+09
 1.06996912e+09 1.06996916e+09 1.06996920e+09 1.06996924e+09
 1.06996928e+09 1.06996932e+09 1.06996936e+09 1.06996940e+09
 1.06996944e+09 1.06996948e+09 1.06996952e+09 1.06996956e+09
 1.06996960e+09 1.06996964e+09 1.06996968e+09 1.06996972e+09
 1.06996976e+09 1.06996980e+09 1.06996985e+09 1.06996989e+09
 1.06996993e+09 1.06996997e+09 1.06997001e+09 1.06997005e+09
 1.06997009e+09 1.06997013e+09 1.06997017e+09 1.06997021e+09
 1.06997025e+09 1.06997029e+09 1.06997033e+09 1.06997037e+09
 1.06997041e+09 1.06997045e+09 1.06997049e+09 1.06997053e+09
 1.06997057e+09 1.06997061e+09 1.06997065e+09 1.06997069e+09
 1.06997073e+09 1.06997077e+09 1.06997081e+09 1.06997085e+09
 1.06997089e+09 1.06997093e+09 1.06997097e+09 1.06997101e+09
 1.06997105e+09 1.06997109e+09 1.06997113e+09 1.06997117e+09
 1.06997121e+09 1.06997125e+09 1.06997129e+09 1.06997133e+09
 1.06997137e+09 1.06997141e+09 1.06997145e+09 1.06997149e+09
 1.06997153e+09 1.06997157e+09 1.06997161e+09 1.06997165e+09
 1.06997169e+09 1.06997173e+09 1.06997177e+09 1.06997182e+09
 1.06997186e+09 1.06997190e+09 1.06997194e+09 1.06997198e+09
 1.06997202e+09 1.06997206e+09 1.06997210e+09 1.06997214e+09
 1.06997218e+09 1.06997222e+09 1.06997226e+09 1.06997230e+09
 1.06997234e+09 1.06997238e+09 1.06997242e+09 1.06997246e+09
 1.06997250e+09 1.06997254e+09 1.06997258e+09 1.06997262e+09
 1.06997266e+09 1.06997270e+09 1.06997274e+09 1.06997278e+09
 1.06997282e+09 1.06997286e+09 1.06997290e+09 1.06997294e+09
 1.06997298e+09 1.06997302e+09 1.06997306e+09 1.06997310e+09
 1.06997314e+09 1.06997318e+09 1.06997322e+09 1.06997326e+09
 1.06997330e+09 1.06997334e+09 1.06997338e+09 1.06997342e+09
 1.06997346e+09 1.06997350e+09 1.06997354e+09 1.06997358e+09
 1.06997362e+09 1.06997366e+09 1.06997370e+09 1.06997374e+09
 1.06997378e+09 1.06997383e+09 1.06997387e+09 1.06997391e+09
 1.06997395e+09 1.06997399e+09 1.06997403e+09 1.06997407e+09
 1.06997411e+09 1.06997415e+09 1.06997419e+09 1.06997423e+09
 1.06997427e+09 1.06997431e+09 1.06997435e+09 1.06997439e+09
 1.06997443e+09 1.06997447e+09 1.06997451e+09 1.06997455e+09
 1.06997459e+09 1.06997463e+09 1.06997467e+09 1.06997471e+09
 1.06997475e+09 1.06997479e+09 1.06997483e+09 1.06997487e+09
 1.06997491e+09 1.06997495e+09 1.06997499e+09 1.06997503e+09
 1.06997507e+09 1.06997511e+09 1.06997515e+09 1.06997519e+09
 1.06997523e+09 1.06997527e+09 1.06997531e+09 1.06997535e+09
 1.06997539e+09 1.06997543e+09 1.06997547e+09 1.06997551e+09
 1.06997555e+09 1.06997559e+09 1.06997563e+09 1.06997567e+09
 1.06997571e+09 1.06997575e+09 1.06997580e+09 1.06997584e+09
 1.06997588e+09 1.06997592e+09 1.06997596e+09 1.06997600e+09
 1.06997604e+09 1.06997608e+09 1.06997612e+09 1.06997616e+09
 1.06997620e+09 1.06997624e+09 1.06997628e+09 1.06997632e+09
 1.06997636e+09 1.06997640e+09 1.06997644e+09 1.06997648e+09
 1.06997652e+09 1.06997656e+09 1.06997660e+09 1.06997664e+09
 1.06997668e+09 1.06997672e+09 1.06997676e+09 1.06997680e+09
 1.06997684e+09 1.06997688e+09 1.06997692e+09 1.06997696e+09
 1.06997700e+09 1.06997704e+09 1.06997708e+09 1.06997712e+09
 1.06997716e+09 1.06997720e+09 1.06997724e+09 1.06997728e+09
 1.06997732e+09 1.06997736e+09 1.06997740e+09 1.06997744e+09
 1.06997748e+09 1.06997752e+09 1.06997756e+09 1.06997760e+09
 1.06997764e+09 1.06997768e+09 1.06997772e+09 1.06997777e+09
 1.06997781e+09 1.06997785e+09 1.06997789e+09 1.06997793e+09
 1.06997797e+09 1.06997801e+09 1.06997805e+09 1.06997809e+09
 1.06997813e+09 1.06997817e+09 1.06997821e+09 1.06997825e+09
 1.06997829e+09 1.06997833e+09 1.06997837e+09 1.06997841e+09
 1.06997845e+09 1.06997849e+09 1.06997853e+09 1.06997857e+09
 1.06997861e+09 1.06997865e+09 1.06997869e+09 1.06997873e+09
 1.06997877e+09 1.06997881e+09 1.06997885e+09 1.06997889e+09
 1.06997893e+09 1.06997897e+09 1.06997901e+09 1.06997905e+09
 1.06997909e+09 1.06997913e+09 1.06997917e+09 1.06997921e+09
 1.06997925e+09 1.06997929e+09 1.06997933e+09 1.06997937e+09
 1.06997941e+09 1.06997945e+09 1.06997949e+09 1.06997953e+09
 1.06997957e+09 1.06997961e+09 1.06997965e+09 1.06997969e+09
 1.06997973e+09 1.06997978e+09 1.06997982e+09 1.06997986e+09
 1.06997990e+09 1.06997994e+09 1.06997998e+09 1.06998002e+09
 1.06998006e+09 1.06998010e+09 1.06998014e+09 1.06998018e+09
 1.06998022e+09 1.06998026e+09 1.06998030e+09 1.06998034e+09
 1.06998038e+09 1.06998042e+09 1.06998046e+09 1.06998050e+09
 1.06998054e+09 1.06998058e+09 1.06998062e+09 1.06998066e+09
 1.06998070e+09 1.06998074e+09 1.06998078e+09 1.06998082e+09
 1.06998086e+09 1.06998090e+09 1.06998094e+09 1.06998098e+09
 1.06998102e+09 1.06998106e+09 1.06998110e+09 1.06998114e+09
 1.06998118e+09 1.06998122e+09 1.06998126e+09 1.06998130e+09
 1.06998134e+09 1.06998138e+09 1.06998142e+09 1.06998146e+09
 1.06998150e+09 1.06998154e+09 1.06998158e+09 1.06998162e+09
 1.06998166e+09 1.06998170e+09 1.06998175e+09 1.06998179e+09
 1.06998183e+09 1.06998187e+09 1.06998191e+09 1.06998195e+09
 1.06998199e+09 1.06998203e+09 1.06998207e+09 1.06998211e+09
 1.06998215e+09 1.06998219e+09 1.06998223e+09 1.06998227e+09
 1.06998231e+09 1.06998235e+09 1.06998239e+09 1.06998243e+09
 1.06998247e+09 1.06998251e+09 1.06998255e+09 1.06998259e+09
 1.06998263e+09 1.06998267e+09 1.06998271e+09 1.06998275e+09
 1.06998279e+09 1.06998283e+09 1.06998287e+09 1.06998291e+09
 1.06998295e+09 1.06998299e+09 1.06998303e+09 1.06998307e+09
