name =JUICE_ROI_GAN_2_0_02
flyby = ['2034 NOV 18 09:58:51', '2034 NOV 19 09:58:51']
Observation TW = <SpiceCell dtype = 1, length = 0, size = 2600, card = 6, is_set = 1, adjust = 0, init = 1, base = 94708076262848, data = 94708076262896>
Res(t) = [0.49201275 0.49210614 0.4922     0.49229435 0.49238918 0.49248448
 0.49258027 0.49267653 0.49277327 0.49287049 0.49296818 0.49306635
 0.493165   0.49326412 0.49336372 0.4934638  0.49356435 0.49366538
 0.49376688 0.49386885 0.4939713  0.49407423 0.49417762 0.49428149
 0.49438584 0.49449065 0.49459594 0.4947017  0.49480793 0.49491464
 0.49502181 0.49512946 0.49523757 0.49534616 0.49545521 0.49556474
 0.49567473 0.49578519 0.49589613 0.49600753 0.49611939 0.49623173
 0.49634453 0.4964578  0.49657154 0.49668574 0.4968004  0.49691554
 0.49703114 0.4971472  0.49726373 0.49738072 0.49749818 0.49761609
 0.49773448 0.49785332 0.49797263 0.4980924  0.49821263 0.49833332
 0.49845448 0.49857609 0.49869817 0.4988207  0.4989437  0.49906715
 0.49919106 0.49931543 0.49944026 0.49956555 0.49969129 0.4998175
 0.49994415 0.50007127 0.50019884 0.50032686 0.50045535 0.50058428
 0.50071367 0.50084352 0.50097381 0.50110457 0.50123577 0.50136743
 0.50149954 0.5016321  0.50176511 0.50189858 0.50203249 0.50216685
 0.50230167 0.50243693 0.50257265 0.50270881 0.50284542 0.50298247
 0.50311998 0.50325793 0.50339633 0.50353518 0.50367447 0.50381421
 0.50395439 0.50409502 0.50423609 0.5043776  0.50451956 0.50466196
 0.50480481 0.5049481  0.50509182 0.50523599 0.50538061 0.50552566
 0.50567115 0.50581708 0.50596345 0.50611026 0.50625751 0.5064052
 0.50655332 0.50670189 0.50685089 0.50700032 0.50715019 0.5073005
 0.50745124 0.50760242 0.50775403 0.50790608 0.50805856 0.50821147
 0.50836481 0.50851859 0.5086728  0.50882744 0.50898251 0.50913801
 0.50929394 0.5094503  0.50960709 0.50976431 0.50992196 0.51008003
 0.51023853 0.51039746 0.51055682 0.5107166  0.5108768  0.51103744
 0.51119849 0.51135997 0.51152188 0.51168421 0.51184696 0.51201013
 0.51217373 0.51233774 0.51250218 0.51266704 0.51283232 0.51299802
 0.51316413 0.51333067 0.51349762 0.51366499 0.51383278 0.51400099
 0.51416961 0.51433865 0.51450811 0.51467798 0.51484826 0.51501896
 0.51519007 0.51536159 0.51553353 0.51570588 0.51587864 0.51605181
 0.5162254  0.51639939 0.51657379 0.51674861 0.51692383 0.51709946
 0.5172755  0.51745194 0.51762879 0.51780605 0.51798372 0.51816179
 0.51834026 0.51851914 0.51869843 0.51887811 0.5190582  0.5192387
 0.51941959 0.51960089 0.51978259 0.51996468 0.52014718 0.52033008
 0.52051338 0.52069707 0.52088117 0.52106566 0.52125055 0.52143583
 0.52162151 0.52180759 0.52199406 0.52218093 0.52236819 0.52255584
 0.52274389 0.52293233 0.52312116 0.52331039 0.5235     0.52369001
 0.5238804  0.52407119 0.52426236 0.52445392 0.52464587 0.52483821
 0.52503094 0.52522405 0.52541755 0.52561143 0.5258057  0.52600035
 0.52619539 0.52639081 0.52658661 0.5267828  0.52697936 0.52717631
 0.52737364 0.52757135 0.52776944 0.52796791 0.52816676 0.52836599
 0.52856559 0.52876557 0.52896593 0.52916666 0.52936777 0.52956926
 0.52977112 0.52997335 0.53017595 0.53037893 0.53058229 0.53078601
 0.53099011 0.53119457 0.53139941 0.53160462 0.53181019 0.53201614
 0.53222245 0.53242913 0.53263618 0.53284359 0.53305137 0.53325952
 0.53346803 0.5336769  0.53388614 0.53409575 0.53430571 0.53451604
 0.53472673 0.53493778 0.53514919 0.53536097 0.5355731  0.53578559
 0.53599844 0.53621164 0.53642521 0.53663913 0.53685341 0.53706804
 0.53728303 0.53749838 0.53771408 0.53793013 0.53814653 0.53836329
 0.5385804  0.53879786 0.53901567 0.53923384 0.53945235 0.53967121
 0.53989042 0.54010998 0.54032989 0.54055014 0.54077074 0.54099169
 0.54121298 0.54143461 0.5416566  0.54187892 0.54210159 0.5423246
 0.54254795 0.54277165 0.54299568 0.54322006 0.54344477 0.54366983
 0.54389522 0.54412095 0.54434702 0.54457343 0.54480018 0.54502726
 0.54525467 0.54548242 0.54571051 0.54593893 0.54616768 0.54639676
 0.54662618 0.54685593 0.54708601 0.54731642 0.54754716 0.54777823
 0.54800962 0.54824135 0.5484734  0.54870579 0.54893849 0.54917153
 0.54940489 0.54963857 0.54987258 0.55010691 0.55034157 0.55057654
 0.55081184 0.55104747 0.55128341 0.55151967 0.55175626 0.55199316
 0.55223038 0.55246792 0.55270577 0.55294395 0.55318244 0.55342124
 0.55366037 0.5538998  0.55413955 0.55437962 0.55461999 0.55486068
 0.55510168 0.555343   0.55558462 0.55582656 0.5560688  0.55631135
 0.55655421 0.55679738 0.55704086 0.55728464 0.55752873 0.55777313
 0.55801783 0.55826284 0.55850814 0.55875376 0.55899967 0.55924589
 0.55949241 0.55973923 0.55998636 0.56023378 0.5604815  0.56072952
 0.56097784 0.56122645 0.56147537 0.56172458 0.56197408 0.56222389
 0.56247398 0.56272438 0.56297506 0.56322604 0.56347731 0.56372887
 0.56398073 0.56423287 0.56448531 0.56473804 0.56499105 0.56524436
 0.56549795 0.56575183 0.566006   0.56626045 0.56651519 0.56677021
 0.56702552 0.56728112 0.56753699 0.56779315 0.5680496  0.56830632
 0.56856333 0.56882061 0.56907818 0.56933603 0.56959415 0.56985256
 0.57011124 0.5703702  0.57062944 0.57088895 0.57114874 0.5714088
 0.57166914 0.57192975 0.57219064 0.57245179 0.57271323 0.57297493
 0.5732369  0.57349915 0.57376166 0.57402444 0.5742875  0.57455082
 0.57481441 0.57507826 0.57534239 0.57560677 0.57587143 0.57613635
 0.57640153 0.57666698 0.57693269 0.57719866 0.5774649  0.5777314
 0.57799816 0.57826518 0.57853245 0.57879999 0.57906779 0.57933584
 0.57960416 0.57987273 0.58014155 0.58041064 0.58067998 0.58094957
 0.58121942 0.58148952 0.58175987 0.58203048 0.58230134 0.58257245
 0.58284381 0.58311542 0.58338728 0.58365939 0.58393175 0.58420436
 0.58447722 0.58475032 0.58502367 0.58529726 0.5855711  0.58584519
 0.58611952 0.58639409 0.58666891 0.58694397 0.58721927 0.58749481
 0.5877706  0.58804662 0.58832288 0.58859939 0.58887613 0.58915311
 0.58943033 0.58970778 0.58998547 0.5902634  0.59054157 0.59081996
 0.5910986  0.59137746 0.59165656 0.59193589 0.59221546 0.59249525
 0.59277528 0.59305554 0.59333603 0.59361674 0.59389769 0.59417886
 0.59446026 0.59474189 0.59502375 0.59530583 0.59558814 0.59587067
 0.59615343 0.59643641 0.59671962 0.59700304 0.59728669 0.59757056
 0.59785466 0.59813897 0.59842351 0.59870826 0.59899323 0.59927842
 0.59956383 0.59984946 0.6001353  0.60042136 0.60070764 0.60099413
 0.60128084 0.60156776 0.60185489 0.60214224 0.6024298  0.60271758
 0.60300556 0.60329375 0.60358216 0.60387078 0.6041596  0.60444864
 0.60473788 0.60502733 0.60531699 0.60560685 0.60589692 0.6061872
 0.60647768 0.60676837 0.60705926 0.60735036 0.60764166 0.60793316
 0.60822486 0.60851676 0.60880887 0.60910118 0.60939368 0.60968639
 0.60997929 0.6102724  0.6105657  0.6108592  0.61115289 0.61144678
 0.61174087 0.61203515 0.61232963 0.6126243  0.61291917 0.61321423
 0.61350948 0.61380493 0.61410056 0.61439639 0.61469241 0.61498862
 0.61528501 0.6155816  0.61587838 0.61617534 0.61647249 0.61676983
 0.61706736 0.61736507 0.61766297 0.61796105 0.61825932 0.61855777
 0.6188564  0.61915522 0.61945422 0.6197534  0.62005277 0.62035231
 0.62065204 0.62095194 0.62125203 0.62155229 0.62185274 0.62215336
 0.62245416 0.62275513 0.62305628 0.62335761 0.62365912 0.6239608
 0.62426265 0.62456468 0.62486688 0.62516926 0.6254718  0.62577452
 0.62607742 0.62638048 0.62668371 0.62698712 0.62729069 0.62759443
 0.62789834 0.62820242 0.62850667 0.62881109 0.62911567 0.62942042
 0.62972533 0.63003041 0.63033565 0.63064106 0.63094663 0.63125237
 0.63155827 0.63186433 0.63217055 0.63247694 0.63278349 0.63309019
 0.63339706 0.63370409 0.63401127 0.63431862 0.63462612 0.63493378
 0.6352416  0.63554957 0.6358577  0.63616599 0.63647443 0.63678303
 0.63709178 0.63740069 0.63770975 0.63801896 0.63832833 0.63863784
 0.63894751 0.63925733 0.63956731 0.63987743 0.6401877  0.64049812
 0.64080869 0.64111941 0.64143028 0.64174129 0.64205245 0.64236376
 0.64267522 0.64298682 0.64329856 0.64361045 0.64392249 0.64423467
 0.64454699 0.64485945 0.64517206 0.64548481 0.64579771 0.64611074
 0.64642392 0.64673723 0.64705069 0.64736428 0.64767802 0.64799189
 0.6483059  0.64862005 0.64893433 0.64924876 0.64956332 0.64987801
 0.65019285 0.65050781 0.65082291 0.65113815 0.65145352 0.65176902
 0.65208466 0.65240043 0.65271633 0.65303236 0.65334853 0.65366482
 0.65398125 0.6542978  0.65461449 0.6549313  0.65524825 0.65556532
 0.65588252 0.65619985 0.6565173  0.65683489 0.65715259 0.65747043
 0.65778839 0.65810647 0.65842468 0.65874301 0.65906147 0.65938005
 0.65969875 0.66001758 0.66033653 0.6606556  0.66097479 0.6612941
 0.66161354 0.66193309 0.66225277 0.66257256 0.66289247 0.6632125
 0.66353265 0.66385291 0.6641733  0.6644938  0.66481442 0.66513515
 0.665456   0.66577696 0.66609804 0.66641924 0.66674055 0.66706197
 0.66738351 0.66770515 0.66802692 0.66834879 0.66867078 0.66899287
 0.66931508 0.6696374  0.66995983 0.67028237 0.67060502 0.67092778
 0.67125065 0.67157362 0.67189671 0.6722199  0.6725432  0.67286661
 0.67319012 0.67351374 0.67383746 0.67416129 0.67448523 0.67480927
 0.67513342 0.67545766 0.67578202 0.67610647 0.67643103 0.67675569
 0.67708046 0.67740532 0.67773029 0.67805536 0.67838053 0.6787058
 0.67903117 0.67935664 0.6796822  0.68000787 0.68033364 0.6806595
 0.68098547 0.68131153 0.68163768 0.68196394 0.68229029 0.68261674
 0.68294328 0.68326992 0.68359665 0.68392348 0.6842504  0.68457742
 0.68490453 0.68523173 0.68555903 0.68588642 0.6862139  0.68654148
 0.68686915 0.6871969  0.68752475 0.68785269 0.68818072 0.68850884
 0.68883705 0.68916535 0.68949374 0.68982222 0.69015079 0.69047944
 0.69080818 0.69113701 0.69146593 0.69179493 0.69212402 0.6924532
 0.69278246 0.69311181 0.69344124 0.69377076 0.69410036 0.69443005
 0.69475982 0.69508968 0.69541961 0.69574964 0.69607974 0.69640993
 0.69674019 0.69707055 0.69740098 0.69773149 0.69806209 0.69839276
 0.69872352 0.69905435 0.69938527 0.69971626 0.70004733 0.70037849
 0.70070972 0.70104103 0.70137242 0.70170388 0.70203542 0.70236704
 0.70269874 0.70303051 0.70336236 0.70369429 0.70402629 0.70435836
 0.70469051 0.70502274 0.70535504 0.70568741 0.70601986 0.70635239
 0.70668498 0.70701765 0.70735039 0.70768321 0.70801609 0.70834905
 0.70868208 0.70901518 0.70934836 0.7096816  0.71001491 0.7103483
 0.71068175 0.71101528 0.71134887 0.71168254 0.71201627 0.71235007
 0.71268394 0.71301788 0.71335189 0.71368596 0.7140201  0.71435431
 0.71468859 0.71502293 0.71535734 0.71569182 0.71602636 0.71636097
 0.71669564 0.71703038 0.71736518 0.71770005 0.71803498 0.71836998
 0.71870504 0.71904016 0.71937535 0.7197106  0.72004592 0.72038129
 0.72071673 0.72105224 0.7213878  0.72172343 0.72205911 0.72239486
 0.72273067 0.72306654 0.72340248 0.72373847 0.72407452 0.72441063
 0.72474681 0.72508304 0.72541933 0.72575568 0.72609209 0.72642856
 0.72676508 0.72710167 0.72743831 0.72777501 0.72811177 0.72844858
 0.72878546 0.72912239 0.72945937 0.72979641 0.73013351 0.73047067
 0.73080788 0.73114515 0.73148247 0.73181985 0.73215728 0.73249476
 0.73283231 0.7331699  0.73350755 0.73384526 0.73418302 0.73452083
 0.73485869 0.73519661 0.73553459 0.73587261 0.73621069 0.73654882
 0.736887   0.73722523 0.73756352 0.73790186 0.73824025 0.73857869
 0.73891718 0.73925572 0.73959432 0.73993296 0.74027166 0.7406104
 0.7409492  0.74128804 0.74162693 0.74196588 0.74230487 0.74264391
 0.74298301 0.74332215 0.74366134 0.74400057 0.74433986 0.74467919
 0.74501858 0.74535801 0.74569748 0.74603701 0.74637658 0.7467162
 0.74705587 0.74739558 0.74773534 0.74807515]
t = [1.10077605e+09 1.10077609e+09 1.10077613e+09 1.10077617e+09
 1.10077621e+09 1.10077625e+09 1.10077629e+09 1.10077632e+09
 1.10077636e+09 1.10077640e+09 1.10077644e+09 1.10077648e+09
 1.10077652e+09 1.10077656e+09 1.10077660e+09 1.10077664e+09
 1.10077668e+09 1.10077672e+09 1.10077676e+09 1.10077679e+09
 1.10077683e+09 1.10077687e+09 1.10077691e+09 1.10077695e+09
 1.10077699e+09 1.10077703e+09 1.10077707e+09 1.10077711e+09
 1.10077715e+09 1.10077719e+09 1.10077723e+09 1.10077727e+09
 1.10077730e+09 1.10077734e+09 1.10077738e+09 1.10077742e+09
 1.10077746e+09 1.10077750e+09 1.10077754e+09 1.10077758e+09
 1.10077762e+09 1.10077766e+09 1.10077770e+09 1.10077774e+09
 1.10077777e+09 1.10077781e+09 1.10077785e+09 1.10077789e+09
 1.10077793e+09 1.10077797e+09 1.10077801e+09 1.10077805e+09
 1.10077809e+09 1.10077813e+09 1.10077817e+09 1.10077821e+09
 1.10077824e+09 1.10077828e+09 1.10077832e+09 1.10077836e+09
 1.10077840e+09 1.10077844e+09 1.10077848e+09 1.10077852e+09
 1.10077856e+09 1.10077860e+09 1.10077864e+09 1.10077868e+09
 1.10077872e+09 1.10077875e+09 1.10077879e+09 1.10077883e+09
 1.10077887e+09 1.10077891e+09 1.10077895e+09 1.10077899e+09
 1.10077903e+09 1.10077907e+09 1.10077911e+09 1.10077915e+09
 1.10077919e+09 1.10077922e+09 1.10077926e+09 1.10077930e+09
 1.10077934e+09 1.10077938e+09 1.10077942e+09 1.10077946e+09
 1.10077950e+09 1.10077954e+09 1.10077958e+09 1.10077962e+09
 1.10077966e+09 1.10077969e+09 1.10077973e+09 1.10077977e+09
 1.10077981e+09 1.10077985e+09 1.10077989e+09 1.10077993e+09
 1.10077997e+09 1.10078001e+09 1.10078005e+09 1.10078009e+09
 1.10078013e+09 1.10078017e+09 1.10078020e+09 1.10078024e+09
 1.10078028e+09 1.10078032e+09 1.10078036e+09 1.10078040e+09
 1.10078044e+09 1.10078048e+09 1.10078052e+09 1.10078056e+09
 1.10078060e+09 1.10078064e+09 1.10078067e+09 1.10078071e+09
 1.10078075e+09 1.10078079e+09 1.10078083e+09 1.10078087e+09
 1.10078091e+09 1.10078095e+09 1.10078099e+09 1.10078103e+09
 1.10078107e+09 1.10078111e+09 1.10078114e+09 1.10078118e+09
 1.10078122e+09 1.10078126e+09 1.10078130e+09 1.10078134e+09
 1.10078138e+09 1.10078142e+09 1.10078146e+09 1.10078150e+09
 1.10078154e+09 1.10078158e+09 1.10078162e+09 1.10078165e+09
 1.10078169e+09 1.10078173e+09 1.10078177e+09 1.10078181e+09
 1.10078185e+09 1.10078189e+09 1.10078193e+09 1.10078197e+09
 1.10078201e+09 1.10078205e+09 1.10078209e+09 1.10078212e+09
 1.10078216e+09 1.10078220e+09 1.10078224e+09 1.10078228e+09
 1.10078232e+09 1.10078236e+09 1.10078240e+09 1.10078244e+09
 1.10078248e+09 1.10078252e+09 1.10078256e+09 1.10078259e+09
 1.10078263e+09 1.10078267e+09 1.10078271e+09 1.10078275e+09
 1.10078279e+09 1.10078283e+09 1.10078287e+09 1.10078291e+09
 1.10078295e+09 1.10078299e+09 1.10078303e+09 1.10078307e+09
 1.10078310e+09 1.10078314e+09 1.10078318e+09 1.10078322e+09
 1.10078326e+09 1.10078330e+09 1.10078334e+09 1.10078338e+09
 1.10078342e+09 1.10078346e+09 1.10078350e+09 1.10078354e+09
 1.10078357e+09 1.10078361e+09 1.10078365e+09 1.10078369e+09
 1.10078373e+09 1.10078377e+09 1.10078381e+09 1.10078385e+09
 1.10078389e+09 1.10078393e+09 1.10078397e+09 1.10078401e+09
 1.10078404e+09 1.10078408e+09 1.10078412e+09 1.10078416e+09
 1.10078420e+09 1.10078424e+09 1.10078428e+09 1.10078432e+09
 1.10078436e+09 1.10078440e+09 1.10078444e+09 1.10078448e+09
 1.10078452e+09 1.10078455e+09 1.10078459e+09 1.10078463e+09
 1.10078467e+09 1.10078471e+09 1.10078475e+09 1.10078479e+09
 1.10078483e+09 1.10078487e+09 1.10078491e+09 1.10078495e+09
 1.10078499e+09 1.10078502e+09 1.10078506e+09 1.10078510e+09
 1.10078514e+09 1.10078518e+09 1.10078522e+09 1.10078526e+09
 1.10078530e+09 1.10078534e+09 1.10078538e+09 1.10078542e+09
 1.10078546e+09 1.10078549e+09 1.10078553e+09 1.10078557e+09
 1.10078561e+09 1.10078565e+09 1.10078569e+09 1.10078573e+09
 1.10078577e+09 1.10078581e+09 1.10078585e+09 1.10078589e+09
 1.10078593e+09 1.10078597e+09 1.10078600e+09 1.10078604e+09
 1.10078608e+09 1.10078612e+09 1.10078616e+09 1.10078620e+09
 1.10078624e+09 1.10078628e+09 1.10078632e+09 1.10078636e+09
 1.10078640e+09 1.10078644e+09 1.10078647e+09 1.10078651e+09
 1.10078655e+09 1.10078659e+09 1.10078663e+09 1.10078667e+09
 1.10078671e+09 1.10078675e+09 1.10078679e+09 1.10078683e+09
 1.10078687e+09 1.10078691e+09 1.10078694e+09 1.10078698e+09
 1.10078702e+09 1.10078706e+09 1.10078710e+09 1.10078714e+09
 1.10078718e+09 1.10078722e+09 1.10078726e+09 1.10078730e+09
 1.10078734e+09 1.10078738e+09 1.10078742e+09 1.10078745e+09
 1.10078749e+09 1.10078753e+09 1.10078757e+09 1.10078761e+09
 1.10078765e+09 1.10078769e+09 1.10078773e+09 1.10078777e+09
 1.10078781e+09 1.10078785e+09 1.10078789e+09 1.10078792e+09
 1.10078796e+09 1.10078800e+09 1.10078804e+09 1.10078808e+09
 1.10078812e+09 1.10078816e+09 1.10078820e+09 1.10078824e+09
 1.10078828e+09 1.10078832e+09 1.10078836e+09 1.10078839e+09
 1.10078843e+09 1.10078847e+09 1.10078851e+09 1.10078855e+09
 1.10078859e+09 1.10078863e+09 1.10078867e+09 1.10078871e+09
 1.10078875e+09 1.10078879e+09 1.10078883e+09 1.10078887e+09
 1.10078890e+09 1.10078894e+09 1.10078898e+09 1.10078902e+09
 1.10078906e+09 1.10078910e+09 1.10078914e+09 1.10078918e+09
 1.10078922e+09 1.10078926e+09 1.10078930e+09 1.10078934e+09
 1.10078937e+09 1.10078941e+09 1.10078945e+09 1.10078949e+09
 1.10078953e+09 1.10078957e+09 1.10078961e+09 1.10078965e+09
 1.10078969e+09 1.10078973e+09 1.10078977e+09 1.10078981e+09
 1.10078984e+09 1.10078988e+09 1.10078992e+09 1.10078996e+09
 1.10079000e+09 1.10079004e+09 1.10079008e+09 1.10079012e+09
 1.10079016e+09 1.10079020e+09 1.10079024e+09 1.10079028e+09
 1.10079032e+09 1.10079035e+09 1.10079039e+09 1.10079043e+09
 1.10079047e+09 1.10079051e+09 1.10079055e+09 1.10079059e+09
 1.10079063e+09 1.10079067e+09 1.10079071e+09 1.10079075e+09
 1.10079079e+09 1.10079082e+09 1.10079086e+09 1.10079090e+09
 1.10079094e+09 1.10079098e+09 1.10079102e+09 1.10079106e+09
 1.10079110e+09 1.10079114e+09 1.10079118e+09 1.10079122e+09
 1.10079126e+09 1.10079129e+09 1.10079133e+09 1.10079137e+09
 1.10079141e+09 1.10079145e+09 1.10079149e+09 1.10079153e+09
 1.10079157e+09 1.10079161e+09 1.10079165e+09 1.10079169e+09
 1.10079173e+09 1.10079177e+09 1.10079180e+09 1.10079184e+09
 1.10079188e+09 1.10079192e+09 1.10079196e+09 1.10079200e+09
 1.10079204e+09 1.10079208e+09 1.10079212e+09 1.10079216e+09
 1.10079220e+09 1.10079224e+09 1.10079227e+09 1.10079231e+09
 1.10079235e+09 1.10079239e+09 1.10079243e+09 1.10079247e+09
 1.10079251e+09 1.10079255e+09 1.10079259e+09 1.10079263e+09
 1.10079267e+09 1.10079271e+09 1.10079274e+09 1.10079278e+09
 1.10079282e+09 1.10079286e+09 1.10079290e+09 1.10079294e+09
 1.10079298e+09 1.10079302e+09 1.10079306e+09 1.10079310e+09
 1.10079314e+09 1.10079318e+09 1.10079322e+09 1.10079325e+09
 1.10079329e+09 1.10079333e+09 1.10079337e+09 1.10079341e+09
 1.10079345e+09 1.10079349e+09 1.10079353e+09 1.10079357e+09
 1.10079361e+09 1.10079365e+09 1.10079369e+09 1.10079372e+09
 1.10079376e+09 1.10079380e+09 1.10079384e+09 1.10079388e+09
 1.10079392e+09 1.10079396e+09 1.10079400e+09 1.10079404e+09
 1.10079408e+09 1.10079412e+09 1.10079416e+09 1.10079419e+09
 1.10079423e+09 1.10079427e+09 1.10079431e+09 1.10079435e+09
 1.10079439e+09 1.10079443e+09 1.10079447e+09 1.10079451e+09
 1.10079455e+09 1.10079459e+09 1.10079463e+09 1.10079467e+09
 1.10079470e+09 1.10079474e+09 1.10079478e+09 1.10079482e+09
 1.10079486e+09 1.10079490e+09 1.10079494e+09 1.10079498e+09
 1.10079502e+09 1.10079506e+09 1.10079510e+09 1.10079514e+09
 1.10079517e+09 1.10079521e+09 1.10079525e+09 1.10079529e+09
 1.10079533e+09 1.10079537e+09 1.10079541e+09 1.10079545e+09
 1.10079549e+09 1.10079553e+09 1.10079557e+09 1.10079561e+09
 1.10079564e+09 1.10079568e+09 1.10079572e+09 1.10079576e+09
 1.10079580e+09 1.10079584e+09 1.10079588e+09 1.10079592e+09
 1.10079596e+09 1.10079600e+09 1.10079604e+09 1.10079608e+09
 1.10079612e+09 1.10079615e+09 1.10079619e+09 1.10079623e+09
 1.10079627e+09 1.10079631e+09 1.10079635e+09 1.10079639e+09
 1.10079643e+09 1.10079647e+09 1.10079651e+09 1.10079655e+09
 1.10079659e+09 1.10079662e+09 1.10079666e+09 1.10079670e+09
 1.10079674e+09 1.10079678e+09 1.10079682e+09 1.10079686e+09
 1.10079690e+09 1.10079694e+09 1.10079698e+09 1.10079702e+09
 1.10079706e+09 1.10079709e+09 1.10079713e+09 1.10079717e+09
 1.10079721e+09 1.10079725e+09 1.10079729e+09 1.10079733e+09
 1.10079737e+09 1.10079741e+09 1.10079745e+09 1.10079749e+09
 1.10079753e+09 1.10079757e+09 1.10079760e+09 1.10079764e+09
 1.10079768e+09 1.10079772e+09 1.10079776e+09 1.10079780e+09
 1.10079784e+09 1.10079788e+09 1.10079792e+09 1.10079796e+09
