name =JUICE_ROI_GAN_2_0_15
flyby = ['2034 SEP 28 18:48:51', '2034 SEP 29 18:48:51']
Observation TW = <SpiceCell dtype = 1, length = 0, size = 3400, card = 14, is_set = 1, adjust = 0, init = 1, base = 94105385429712, data = 94105385429760>
Res(t) = [1.22580302 1.22469831 1.22359635 1.22249712 1.22140064 1.22030691
 1.21921593 1.21812771 1.21704223 1.21595951 1.21487955 1.21380235
 1.21272791 1.21165623 1.21058732 1.20952117 1.2084578  1.20739719
 1.20633936 1.2052843  1.20423202 1.20318251 1.20213579 1.20109185
 1.20005069 1.19901232 1.19797673 1.19694394 1.19591393 1.19488672
 1.19386231 1.19284069 1.19182187 1.19080585 1.18979263 1.18878221
 1.1877746  1.1867698  1.18576781 1.18476863 1.18377226 1.18277871
 1.18178797 1.18080005 1.17981495 1.17883267 1.17785322 1.17687658
 1.17590278 1.1749318  1.17396366 1.17299834 1.17203586 1.17107622
 1.17011941 1.16916544 1.16821431 1.16726602 1.16632057 1.16537797
 1.16443821 1.16350131 1.16256725 1.16163604 1.16070769 1.15978219
 1.15885955 1.15793976 1.15702283 1.15610877 1.15519756 1.15428922
 1.15338375 1.15248114 1.1515814  1.15068453 1.14979053 1.1488994
 1.14801115 1.14712577 1.14624327 1.14536365 1.1444869  1.14361304
 1.14274206 1.14187397 1.14100876 1.14014643 1.139287   1.13843045
 1.1375768  1.13672603 1.13587816 1.13503318 1.1341911  1.13335192
 1.13251564 1.13168225 1.13085177 1.13002419 1.12919951 1.12837773
 1.12755887 1.12674291 1.12592985 1.12511971 1.12431247 1.12350815
 1.12270674 1.12190825 1.12111267 1.12032    1.11953026 1.11874343
 1.11795952 1.11717853 1.11640046 1.11562531 1.11485309 1.11408379
 1.11331742 1.11255397 1.11179345 1.11103585 1.11028119 1.10952946
 1.10878065 1.10803478 1.10729184 1.10655184 1.10581477 1.10508063
 1.10434943 1.10362117 1.10289584 1.10217345 1.101454   1.10073749
 1.10002393 1.0993133  1.09860561 1.09790087 1.09719907 1.09650021
 1.0958043  1.09511133 1.09442131 1.09373423 1.0930501  1.09236892
 1.09169069 1.0910154  1.09034307 1.08967368 1.08900724 1.08834375
 1.08768322 1.08702563 1.086371   1.08571932 1.08507059 1.08442481
 1.08378199 1.08314212 1.08250521 1.08187125 1.08124024 1.08061219
 1.07998709 1.07936495 1.07874576 1.07812953 1.07751625 1.07690593
 1.07629857 1.07569416 1.07509271 1.07449421 1.07389867 1.07330609
 1.07271646 1.07212979 1.07154608 1.07096532 1.07038752 1.06981268
 1.06924079 1.06867186 1.06810589 1.06754287 1.06698281 1.0664257
 1.06587155 1.06532035 1.06477211 1.06422683 1.0636845  1.06314512
 1.0626087  1.06207523 1.06154471 1.06101715 1.06049254 1.05997089
 1.05945218 1.05893643 1.05842363 1.05791378 1.05740688 1.05690292
 1.05640192 1.05590387 1.05540876 1.05491661 1.0544274  1.05394113
 1.05345781 1.05297744 1.05250001 1.05202553 1.05155398 1.05108538
 1.05061973 1.05015701 1.04969723 1.04924039 1.04878649 1.04833553
 1.0478875  1.04744241 1.04700025 1.04656103 1.04612474 1.04569138
 1.04526096 1.04483346 1.04440889 1.04398725 1.04356854 1.04315275
 1.04273988 1.04232994 1.04192292 1.04151882 1.04111765 1.04071939
 1.04032404 1.03993162 1.03954211 1.03915551 1.03877182 1.03839105
 1.03801318 1.03763822 1.03726617 1.03689702 1.03653078 1.03616744
 1.035807   1.03544946 1.03509481 1.03474306 1.03439421 1.03404825
 1.03370518 1.033365   1.03302771 1.0326933  1.03236178 1.03203314
 1.03170739 1.03138451 1.03106451 1.03074738 1.03043313 1.03012175
 1.02981324 1.0295076  1.02920482 1.02890491 1.02860786 1.02831367
 1.02802234 1.02773387 1.02744824 1.02716548 1.02688556 1.02660849
 1.02633426 1.02606288 1.02579434 1.02552864 1.02526577 1.02500574
 1.02474855 1.02449418 1.02424264 1.02399393 1.02374803 1.02350496
 1.02326471 1.02302728 1.02279265 1.02256084 1.02233184 1.02210564
 1.02188224 1.02166165 1.02144386 1.02122886 1.02101665 1.02080723
 1.02060061 1.02039676 1.0201957  1.01999742 1.01980192 1.01960919
 1.01941923 1.01923204 1.01904761 1.01886595 1.01868705 1.01851091
 1.01833752 1.01816688 1.01799899 1.01783384 1.01767144 1.01751178
 1.01735485 1.01720065 1.01704919 1.01690045 1.01675444 1.01661115
 1.01647057 1.01633271 1.01619756 1.01606512 1.01593538 1.01580835
 1.01568401 1.01556237 1.01544342 1.01532715 1.01521357 1.01510268
 1.01499446 1.01488891 1.01478604 1.01468584 1.01458829 1.01449341
 1.01440119 1.01431162 1.0142247  1.01414042 1.01405879 1.0139798
 1.01390344 1.01382972 1.01375862 1.01369015 1.0136243  1.01356106
 1.01350044 1.01344243 1.01338702 1.01333421 1.01328401 1.01323639
 1.01319137 1.01314893 1.01310908 1.0130718  1.0130371  1.01300496
 1.0129754  1.0129484  1.01292395 1.01290206 1.01288272 1.01286593
 1.01285167 1.01283996 1.01283078 1.01282413 1.01282    1.0128184
 1.01281931 1.01282273 1.01282867 1.0128371  1.01284804 1.01286147
 1.0128774  1.01289581 1.0129167  1.01294008 1.01296592 1.01299424
 1.01302502 1.01305826 1.01309396 1.01313211 1.0131727  1.01321574
 1.01326122 1.01330913 1.01335946 1.01341223 1.01346741 1.01352501
 1.01358502 1.01364743 1.01371225 1.01377946 1.01384906 1.01392106
 1.01399543 1.01407218 1.01415131 1.0142328  1.01431666 1.01440287
 1.01449144 1.01458236 1.01467562 1.01477122 1.01486915 1.01496942
 1.01507201 1.01517692 1.01528414 1.01539367 1.01550551 1.01561965
 1.01573608 1.01585481 1.01597581 1.0160991  1.01622466 1.0163525
 1.01648259 1.01661495 1.01674956 1.01688642 1.01702552 1.01716687
 1.01731044 1.01745625 1.01760428 1.01775453 1.01790699 1.01806166
 1.01821853 1.0183776  1.01853886 1.01870231 1.01886794 1.01903575
 1.01920573 1.01937787 1.01955217 1.01972863 1.01990724 1.020088
 1.02027089 1.02045592 1.02064307 1.02083235 1.02102374 1.02121725
 1.02141287 1.02161058 1.02181039 1.0220123  1.02221628 1.02242235
 1.02263049 1.02284069 1.02305297 1.02326729 1.02348367 1.0237021
 1.02392257 1.02414507 1.0243696  1.02459616 1.02482473 1.02505532
 1.02528791 1.02552251 1.0257591  1.02599768 1.02623824 1.02648079
 1.02672531 1.0269718  1.02722024 1.02747065 1.027723   1.0279773
 1.02823354 1.02849172 1.02875182 1.02901384 1.02927778 1.02954363
 1.02981138 1.03008104 1.03035259 1.03062602 1.03090134 1.03117853
 1.03145759 1.03173852 1.0320213  1.03230594 1.03259243 1.03288076
 1.03317092 1.03346291 1.03375672 1.03405236 1.0343498  1.03464905
 1.03495011 1.03525295 1.03555759 1.035864   1.0361722  1.03648216
 1.03679389 1.03710738 1.03742263 1.03773962 1.03805835 1.03837882
 1.03870101 1.03902493 1.03935057 1.03967792 1.04000698 1.04033773
 1.04067018 1.04100432 1.04134014 1.04167764 1.04201681 1.04235764
 1.04270013 1.04304427 1.04339006 1.04373749 1.04408656 1.04443725
 1.04478957 1.0451435  1.04549905 1.0458562  1.04621494 1.04657529
 1.04693721 1.04730072 1.04766581 1.04803246 1.04840067 1.04877045
 1.04914177 1.04951464 1.04988905 1.05026499 1.05064246 1.05102145
 1.05140195 1.05178396 1.05216748 1.05255249 1.052939   1.05332699
 1.05371646 1.0541074  1.05449981 1.05489369 1.05528901 1.05568579
 1.05608401 1.05648367 1.05688475 1.05728727 1.0576912  1.05809655
 1.0585033  1.05891146 1.05932101 1.05973195 1.06014428 1.06055798
 1.06097305 1.06138949 1.06180729 1.06222645 1.06264695 1.06306879
 1.06349197 1.06391648 1.06434231 1.06476947 1.06519793 1.0656277
 1.06605877 1.06649113 1.06692479 1.06735972 1.06779593 1.06823342
 1.06867216 1.06911217 1.06955343 1.06999594 1.07043968 1.07088467
 1.07133088 1.07177832 1.07222697 1.07267683 1.0731279  1.07358017
 1.07403364 1.07448829 1.07494413 1.07540114 1.07585932 1.07631867
 1.07677918 1.07724083 1.07770364 1.07816759 1.07863267 1.07909889
 1.07956622 1.08003468 1.08050425 1.08097492 1.0814467  1.08191957
 1.08239353 1.08286857 1.08334469 1.08382189 1.08430015 1.08477947
 1.08525984 1.08574127 1.08622373 1.08670724 1.08719177 1.08767734
 1.08816392 1.08865152 1.08914012 1.08962973 1.09012034 1.09061194
 1.09110453 1.09159809 1.09209263 1.09258815 1.09308462 1.09358205
 1.09408044 1.09457977 1.09508005 1.09558126 1.0960834  1.09658646
 1.09709044 1.09759534 1.09810114 1.09860785 1.09911545 1.09962395
 1.10013333 1.10064359 1.10115473 1.10166673 1.1021796  1.10269332
 1.1032079  1.10372333 1.1042396  1.1047567  1.10527464 1.1057934
 1.10631298 1.10683338 1.10735458 1.10787659 1.1083994  1.108923
 1.10944738 1.10997255 1.1104985  1.11102522 1.11155271 1.11208095
 1.11260995 1.11313971 1.1136702  1.11420144 1.11473341 1.11526611
 1.11579954 1.11633368 1.11686854 1.1174041  1.11794037 1.11847734
 1.119015   1.11955334 1.12009237 1.12063208 1.12117246 1.1217135
 1.12225521 1.12279757 1.12334059 1.12388425 1.12442855 1.12497349
 1.12551906 1.12606525 1.12661207 1.1271595  1.12770754 1.12825619
 1.12880544 1.12935529 1.12990573 1.13045675 1.13100835 1.13156053
 1.13211328 1.1326666  1.13322048 1.13377491 1.1343299  1.13488543
 1.1354415  1.13599811 1.13655525 1.13711292 1.13767111 1.13822982
 1.13878905 1.13934877 1.13990901 1.14046974 1.14103096 1.14159267
 1.14215487 1.14271754 1.14328069 1.14384431 1.1444084  1.14497295
 1.14553795 1.1461034  1.1466693  1.14723564 1.14780242 1.14836963
 1.14893726 1.14950532 1.1500738  1.1506427  1.151212   1.15178171
 1.15235182 1.15292233 1.15349323 1.15406451 1.15463618 1.15520822
 1.15578064 1.15635343 1.15692658 1.1575001  1.15807397 1.15864819
 1.15922276 1.15979767 1.16037292 1.1609485  1.16152441 1.16210065
 1.16267721 1.16325409 1.16383128 1.16440878 1.16498658 1.16556468
 1.16614308 1.16672177 1.16730075 1.16788001 1.16845954 1.16903936
 1.16961944 1.17019979 1.1707804  1.17136127 1.17194239 1.17252377
 1.17310539 1.17368725 1.17426935 1.17485168 1.17543424 1.17601703
 1.17660004 1.17718326 1.17776671 1.17835036 1.17893421 1.17951827
 1.18010252 1.18068697 1.18127161 1.18185644 1.18244145 1.18302663
 1.18361199 1.18419752 1.18478322 1.18536908 1.1859551  1.18654128
 1.18712761 1.18771408 1.1883007  1.18888746 1.18947436 1.19006139
 1.19064855 1.19123584 1.19182324 1.19241077 1.19299841 1.19358616
 1.19417402 1.19476198 1.19535005 1.19593821 1.19652646 1.1971148
 1.19770323 1.19829174 1.19888034 1.199469   1.20005774 1.20064655
 1.20123542 1.20182435 1.20241334 1.20300239 1.20359149 1.20418064
 1.20476983 1.20535906 1.20594833 1.20653764 1.20712697 1.20771634
 1.20830573 1.20889514 1.20948457 1.21007401 1.21066346 1.21125293
 1.2118424  1.21243187 1.21302134 1.2136108  1.21420026 1.21478971
 1.21537914 1.21596856 1.21655795 1.21714732 1.21773667 1.21832599
 1.21891527 1.21950452 1.22009373 1.2206829  1.22127203 1.2218611
 1.22245013 1.2230391  1.22362802 1.22421688 1.22480567 1.2253944
 1.22598306 1.22657165 1.22716017 1.22774861 1.22833697 1.22892525
 1.22951344 1.23010155 1.23068956 1.23127748 1.2318653  1.23245303
 1.23304065 1.23362817 1.23421558 1.23480288 1.23539006 1.23597713
 1.23656409 1.23715092 1.23773763 1.23832421 1.23891066 1.23949699
 1.24008318 1.24066923 1.24125514 1.24184091 1.24242654 1.24301202
 1.24359735 1.24418253 1.24476755 1.24535242 1.24593713 1.24652168
 1.24710606 1.24769028 1.24827433 1.24885821 1.24944191 1.25002544
 1.25060879 1.25119195 1.25177494 1.25235774 1.25294035 1.25352277
 1.254105   1.25468704 1.25526887 1.25585051 1.25643195 1.25701318
 1.25759421 1.25817503 1.25875564 1.25933604 1.25991622 1.26049619
 1.26107594 1.26165546 1.26223477 1.26281385 1.2633927  1.26397132
 1.26454971 1.26512787 1.26570579 1.26628348 1.26686092 1.26743813
 1.26801509 1.2685918  1.26916827 1.26974449 1.27032046 1.27089617
 1.27147163 1.27204683 1.27262178 1.27319646 1.27377088 1.27434504
 1.27491893 1.27549255 1.2760659  1.27663898 1.27721179 1.27778432
 1.27835657 1.27892855 1.27950024 1.28007166]
t = [1.09636455e+09 1.09636463e+09 1.09636470e+09 1.09636478e+09
 1.09636485e+09 1.09636493e+09 1.09636501e+09 1.09636508e+09
 1.09636516e+09 1.09636524e+09 1.09636531e+09 1.09636539e+09
 1.09636546e+09 1.09636554e+09 1.09636562e+09 1.09636569e+09
 1.09636577e+09 1.09636584e+09 1.09636592e+09 1.09636600e+09
 1.09636607e+09 1.09636615e+09 1.09636622e+09 1.09636630e+09
 1.09636638e+09 1.09636645e+09 1.09636653e+09 1.09636661e+09
 1.09636668e+09 1.09636676e+09 1.09636683e+09 1.09636691e+09
 1.09636699e+09 1.09636706e+09 1.09636714e+09 1.09636721e+09
 1.09636729e+09 1.09636737e+09 1.09636744e+09 1.09636752e+09
 1.09636760e+09 1.09636767e+09 1.09636775e+09 1.09636782e+09
 1.09636790e+09 1.09636798e+09 1.09636805e+09 1.09636813e+09
 1.09636820e+09 1.09636828e+09 1.09636836e+09 1.09636843e+09
 1.09636851e+09 1.09636858e+09 1.09636866e+09 1.09636874e+09
 1.09636881e+09 1.09636889e+09 1.09636897e+09 1.09636904e+09
 1.09636912e+09 1.09636919e+09 1.09636927e+09 1.09636935e+09
 1.09636942e+09 1.09636950e+09 1.09636957e+09 1.09636965e+09
 1.09636973e+09 1.09636980e+09 1.09636988e+09 1.09636996e+09
 1.09637003e+09 1.09637011e+09 1.09637018e+09 1.09637026e+09
 1.09637034e+09 1.09637041e+09 1.09637049e+09 1.09637056e+09
 1.09637064e+09 1.09637072e+09 1.09637079e+09 1.09637087e+09
 1.09637094e+09 1.09637102e+09 1.09637110e+09 1.09637117e+09
 1.09637125e+09 1.09637133e+09 1.09637140e+09 1.09637148e+09
 1.09637155e+09 1.09637163e+09 1.09637171e+09 1.09637178e+09
 1.09637186e+09 1.09637193e+09 1.09637201e+09 1.09637209e+09
 1.09637216e+09 1.09637224e+09 1.09637232e+09 1.09637239e+09
 1.09637247e+09 1.09637254e+09 1.09637262e+09 1.09637270e+09
 1.09637277e+09 1.09637285e+09 1.09637292e+09 1.09637300e+09
 1.09637308e+09 1.09637315e+09 1.09637323e+09 1.09637330e+09
 1.09637338e+09 1.09637346e+09 1.09637353e+09 1.09637361e+09
 1.09637369e+09 1.09637376e+09 1.09637384e+09 1.09637391e+09
 1.09637399e+09 1.09637407e+09 1.09637414e+09 1.09637422e+09
 1.09637429e+09 1.09637437e+09 1.09637445e+09 1.09637452e+09
 1.09637460e+09 1.09637467e+09 1.09637475e+09 1.09637483e+09
 1.09637490e+09 1.09637498e+09 1.09637506e+09 1.09637513e+09
 1.09637521e+09 1.09637528e+09 1.09637536e+09 1.09637544e+09
 1.09637551e+09 1.09637559e+09 1.09637566e+09 1.09637574e+09
 1.09637582e+09 1.09637589e+09 1.09637597e+09 1.09637605e+09
 1.09637612e+09 1.09637620e+09 1.09637627e+09 1.09637635e+09
 1.09637643e+09 1.09637650e+09 1.09637658e+09 1.09637665e+09
 1.09637673e+09 1.09637681e+09 1.09637688e+09 1.09637696e+09
 1.09637703e+09 1.09637711e+09 1.09637719e+09 1.09637726e+09
 1.09637734e+09 1.09637742e+09 1.09637749e+09 1.09637757e+09
 1.09637764e+09 1.09637772e+09 1.09637780e+09 1.09637787e+09
 1.09637795e+09 1.09637802e+09 1.09637810e+09 1.09637818e+09
 1.09637825e+09 1.09637833e+09 1.09637841e+09 1.09637848e+09
 1.09637856e+09 1.09637863e+09 1.09637871e+09 1.09637879e+09
 1.09637886e+09 1.09637894e+09 1.09637901e+09 1.09637909e+09
 1.09637917e+09 1.09637924e+09 1.09637932e+09 1.09637939e+09
 1.09637947e+09 1.09637955e+09 1.09637962e+09 1.09637970e+09
 1.09637978e+09 1.09637985e+09 1.09637993e+09 1.09638000e+09
 1.09638008e+09 1.09638016e+09 1.09638023e+09 1.09638031e+09
 1.09638038e+09 1.09638046e+09 1.09638054e+09 1.09638061e+09
 1.09638069e+09 1.09638077e+09 1.09638084e+09 1.09638092e+09
 1.09638099e+09 1.09638107e+09 1.09638115e+09 1.09638122e+09
 1.09638130e+09 1.09638137e+09 1.09638145e+09 1.09638153e+09
 1.09638160e+09 1.09638168e+09 1.09638175e+09 1.09638183e+09
 1.09638191e+09 1.09638198e+09 1.09638206e+09 1.09638214e+09
 1.09638221e+09 1.09638229e+09 1.09638236e+09 1.09638244e+09
 1.09638252e+09 1.09638259e+09 1.09638267e+09 1.09638274e+09
 1.09638282e+09 1.09638290e+09 1.09638297e+09 1.09638305e+09
 1.09638312e+09 1.09638320e+09 1.09638328e+09 1.09638335e+09
 1.09638343e+09 1.09638351e+09 1.09638358e+09 1.09638366e+09
 1.09638373e+09 1.09638381e+09 1.09638389e+09 1.09638396e+09
 1.09638404e+09 1.09638411e+09 1.09638419e+09 1.09638427e+09
 1.09638434e+09 1.09638442e+09 1.09638450e+09 1.09638457e+09
 1.09638465e+09 1.09638472e+09 1.09638480e+09 1.09638488e+09
 1.09638495e+09 1.09638503e+09 1.09638510e+09 1.09638518e+09
 1.09638526e+09 1.09638533e+09 1.09638541e+09 1.09638548e+09
 1.09638556e+09 1.09638564e+09 1.09638571e+09 1.09638579e+09
 1.09638587e+09 1.09638594e+09 1.09638602e+09 1.09638609e+09
 1.09638617e+09 1.09638625e+09 1.09638632e+09 1.09638640e+09
 1.09638647e+09 1.09638655e+09 1.09638663e+09 1.09638670e+09
 1.09638678e+09 1.09638686e+09 1.09638693e+09 1.09638701e+09
 1.09638708e+09 1.09638716e+09 1.09638724e+09 1.09638731e+09
 1.09638739e+09 1.09638746e+09 1.09638754e+09 1.09638762e+09
 1.09638769e+09 1.09638777e+09 1.09638784e+09 1.09638792e+09
 1.09638800e+09 1.09638807e+09 1.09638815e+09 1.09638823e+09
 1.09638830e+09 1.09638838e+09 1.09638845e+09 1.09638853e+09
 1.09638861e+09 1.09638868e+09 1.09638876e+09 1.09638883e+09
 1.09638891e+09 1.09638899e+09 1.09638906e+09 1.09638914e+09
 1.09638922e+09 1.09638929e+09 1.09638937e+09 1.09638944e+09
 1.09638952e+09 1.09638960e+09 1.09638967e+09 1.09638975e+09
 1.09638982e+09 1.09638990e+09 1.09638998e+09 1.09639005e+09
 1.09639013e+09 1.09639020e+09 1.09639028e+09 1.09639036e+09
 1.09639043e+09 1.09639051e+09 1.09639059e+09 1.09639066e+09
 1.09639074e+09 1.09639081e+09 1.09639089e+09 1.09639097e+09
 1.09639104e+09 1.09639112e+09 1.09639119e+09 1.09639127e+09
 1.09639135e+09 1.09639142e+09 1.09639150e+09 1.09639157e+09
 1.09639165e+09 1.09639173e+09 1.09639180e+09 1.09639188e+09
 1.09639196e+09 1.09639203e+09 1.09639211e+09 1.09639218e+09
 1.09639226e+09 1.09639234e+09 1.09639241e+09 1.09639249e+09
 1.09639256e+09 1.09639264e+09 1.09639272e+09 1.09639279e+09
 1.09639287e+09 1.09639295e+09 1.09639302e+09 1.09639310e+09
 1.09639317e+09 1.09639325e+09 1.09639333e+09 1.09639340e+09
 1.09639348e+09 1.09639355e+09 1.09639363e+09 1.09639371e+09
 1.09639378e+09 1.09639386e+09 1.09639393e+09 1.09639401e+09
 1.09639409e+09 1.09639416e+09 1.09639424e+09 1.09639432e+09
 1.09639439e+09 1.09639447e+09 1.09639454e+09 1.09639462e+09
 1.09639470e+09 1.09639477e+09 1.09639485e+09 1.09639492e+09
 1.09639500e+09 1.09639508e+09 1.09639515e+09 1.09639523e+09
 1.09639531e+09 1.09639538e+09 1.09639546e+09 1.09639553e+09
 1.09639561e+09 1.09639569e+09 1.09639576e+09 1.09639584e+09
 1.09639591e+09 1.09639599e+09 1.09639607e+09 1.09639614e+09
 1.09639622e+09 1.09639629e+09 1.09639637e+09 1.09639645e+09
 1.09639652e+09 1.09639660e+09 1.09639668e+09 1.09639675e+09
 1.09639683e+09 1.09639690e+09 1.09639698e+09 1.09639706e+09
 1.09639713e+09 1.09639721e+09 1.09639728e+09 1.09639736e+09
 1.09639744e+09 1.09639751e+09 1.09639759e+09 1.09639767e+09
 1.09639774e+09 1.09639782e+09 1.09639789e+09 1.09639797e+09
 1.09639805e+09 1.09639812e+09 1.09639820e+09 1.09639827e+09
 1.09639835e+09 1.09639843e+09 1.09639850e+09 1.09639858e+09
 1.09639865e+09 1.09639873e+09 1.09639881e+09 1.09639888e+09
 1.09639896e+09 1.09639904e+09 1.09639911e+09 1.09639919e+09
 1.09639926e+09 1.09639934e+09 1.09639942e+09 1.09639949e+09
 1.09639957e+09 1.09639964e+09 1.09639972e+09 1.09639980e+09
 1.09639987e+09 1.09639995e+09 1.09640002e+09 1.09640010e+09
 1.09640018e+09 1.09640025e+09 1.09640033e+09 1.09640041e+09
 1.09640048e+09 1.09640056e+09 1.09640063e+09 1.09640071e+09
 1.09640079e+09 1.09640086e+09 1.09640094e+09 1.09640101e+09
 1.09640109e+09 1.09640117e+09 1.09640124e+09 1.09640132e+09
 1.09640140e+09 1.09640147e+09 1.09640155e+09 1.09640162e+09
 1.09640170e+09 1.09640178e+09 1.09640185e+09 1.09640193e+09
 1.09640200e+09 1.09640208e+09 1.09640216e+09 1.09640223e+09
 1.09640231e+09 1.09640238e+09 1.09640246e+09 1.09640254e+09
 1.09640261e+09 1.09640269e+09 1.09640277e+09 1.09640284e+09
 1.09640292e+09 1.09640299e+09 1.09640307e+09 1.09640315e+09
 1.09640322e+09 1.09640330e+09 1.09640337e+09 1.09640345e+09
 1.09640353e+09 1.09640360e+09 1.09640368e+09 1.09640376e+09
 1.09640383e+09 1.09640391e+09 1.09640398e+09 1.09640406e+09
 1.09640414e+09 1.09640421e+09 1.09640429e+09 1.09640436e+09
 1.09640444e+09 1.09640452e+09 1.09640459e+09 1.09640467e+09
 1.09640474e+09 1.09640482e+09 1.09640490e+09 1.09640497e+09
 1.09640505e+09 1.09640513e+09 1.09640520e+09 1.09640528e+09
 1.09640535e+09 1.09640543e+09 1.09640551e+09 1.09640558e+09
 1.09640566e+09 1.09640573e+09 1.09640581e+09 1.09640589e+09
 1.09640596e+09 1.09640604e+09 1.09640612e+09 1.09640619e+09
 1.09640627e+09 1.09640634e+09 1.09640642e+09 1.09640650e+09
 1.09640657e+09 1.09640665e+09 1.09640672e+09 1.09640680e+09
 1.09640688e+09 1.09640695e+09 1.09640703e+09 1.09640710e+09
