name =JUICE_ROI_GAN_4_5_06
flyby = ['2034 SEP 28 18:48:51', '2034 SEP 29 18:48:51']
Observation TW = <SpiceCell dtype = 1, length = 0, size = 3400, card = 14, is_set = 1, adjust = 0, init = 1, base = 94191841846400, data = 94191841846448>
Res(t) = [1.40552909 1.40385148 1.40217698 1.40050561 1.39883736 1.39717223
 1.39551023 1.39385137 1.39219564 1.39054305 1.3888936  1.38724729
 1.38560414 1.38396413 1.38232728 1.38069358 1.37906304 1.37743567
 1.37581146 1.37419042 1.37257255 1.37095786 1.36934635 1.36773802
 1.36613287 1.36453091 1.36293214 1.36133657 1.35974419 1.35815501
 1.35656904 1.35498627 1.35340671 1.35183036 1.35025723 1.34868732
 1.34712063 1.34555717 1.34399694 1.34243993 1.34088617 1.33933563
 1.33778835 1.3362443  1.3347035  1.33316596 1.33163166 1.33010063
 1.32857285 1.32704834 1.32552709 1.32400912 1.32249441 1.32098299
 1.31947484 1.31796997 1.3164684  1.3149701  1.31347511 1.3119834
 1.310495   1.30900989 1.3075281  1.30604961 1.30457443 1.30310256
 1.30163402 1.30016879 1.29870689 1.29724831 1.29579307 1.29434116
 1.29289258 1.29144735 1.29000546 1.28856691 1.28713172 1.28569987
 1.28427139 1.28284626 1.28142449 1.28000609 1.27859106 1.2771794
 1.27577112 1.27436621 1.27296469 1.27156655 1.27017179 1.26878043
 1.26739246 1.26600789 1.26462672 1.26324895 1.26187459 1.26050364
 1.2591361  1.25777198 1.25641128 1.255054   1.25370014 1.25234971
 1.25100272 1.24965916 1.24831903 1.24698235 1.24564911 1.24431932
 1.24299298 1.24167009 1.24035066 1.23903464 1.23772209 1.23641299
 1.23510737 1.23380522 1.23250654 1.23121134 1.22991962 1.22863138
 1.22734663 1.22606537 1.2247876  1.22351332 1.22224255 1.22097527
 1.2197115  1.21845124 1.21719448 1.21594124 1.21469151 1.2134453
 1.21220261 1.21096345 1.20972781 1.20849571 1.20726713 1.2060421
 1.2048206  1.20360264 1.20238822 1.20117735 1.19997003 1.19876627
 1.19756606 1.1963694  1.19517631 1.19398678 1.19280081 1.19161842
 1.19043959 1.18926434 1.18809267 1.18692458 1.18576007 1.18459914
 1.1834418  1.18228805 1.18113789 1.17999133 1.17884836 1.177709
 1.17657324 1.17544108 1.17431253 1.1731876  1.17206627 1.17094856
 1.16983447 1.168724   1.16761715 1.16651392 1.16541433 1.16431836
 1.16322602 1.16213732 1.16105226 1.15997084 1.15889306 1.15781892
 1.15674843 1.15568158 1.15461839 1.15355885 1.15250297 1.15145074
 1.15040217 1.14935727 1.14831603 1.14727845 1.14624455 1.14521431
 1.14418774 1.14316485 1.14214564 1.14113011 1.14011825 1.13911008
 1.13810559 1.13710479 1.13610768 1.13511426 1.13412453 1.13313849
 1.13215615 1.13117751 1.13020257 1.12923132 1.12826379 1.12729995
 1.12633983 1.12538341 1.1244307  1.1234817  1.12253642 1.12159485
 1.120657   1.11972287 1.11879245 1.11786576 1.11694279 1.11602355
 1.11510803 1.11419624 1.11328817 1.11238384 1.11148324 1.11058637
 1.10969324 1.10880384 1.10791817 1.10703625 1.10615807 1.10528362
 1.10441292 1.10354596 1.10268274 1.10182327 1.10096755 1.10011557
 1.09926735 1.09842287 1.09758214 1.09674516 1.09591194 1.09508247
 1.09425675 1.09343479 1.09261658 1.09180213 1.09099144 1.09018451
 1.08938133 1.08858192 1.08778627 1.08699437 1.08620624 1.08542187
 1.08464127 1.08386442 1.08309135 1.08232203 1.08155648 1.0807947
 1.08003668 1.07928243 1.07853195 1.07778523 1.07704228 1.07630309
 1.07556768 1.07483603 1.07410815 1.07338404 1.07266369 1.07194712
 1.07123431 1.07052528 1.06982001 1.06911851 1.06842077 1.06772681
 1.06703662 1.06635019 1.06566753 1.06498864 1.06431351 1.06364216
 1.06297457 1.06231074 1.06165069 1.0609944  1.06034187 1.05969311
 1.05904811 1.05840688 1.05776941 1.05713571 1.05650576 1.05587958
 1.05525716 1.0546385  1.0540236  1.05341246 1.05280507 1.05220145
 1.05160158 1.05100546 1.0504131  1.04982449 1.04923964 1.04865853
 1.04808118 1.04750758 1.04693772 1.04637161 1.04580925 1.04525063
 1.04469576 1.04414462 1.04359723 1.04305358 1.04251366 1.04197749
 1.04144504 1.04091633 1.04039135 1.03987011 1.03935259 1.0388388
 1.03832873 1.03782239 1.03731977 1.03682087 1.03632569 1.03583422
 1.03534648 1.03486244 1.03438211 1.0339055  1.03343259 1.03296338
 1.03249788 1.03203608 1.03157798 1.03112358 1.03067286 1.03022585
 1.02978252 1.02934288 1.02890692 1.02847465 1.02804605 1.02762114
 1.0271999  1.02678233 1.02636843 1.0259582  1.02555164 1.02514873
 1.02474949 1.02435391 1.02396198 1.0235737  1.02318906 1.02280808
 1.02243074 1.02205703 1.02168697 1.02132054 1.02095773 1.02059856
 1.02024301 1.01989108 1.01954278 1.01919808 1.018857   1.01851953
 1.01818566 1.01785539 1.01752872 1.01720565 1.01688617 1.01657028
 1.01625797 1.01594924 1.01564409 1.01534252 1.01504451 1.01475007
 1.0144592  1.01417188 1.01388812 1.01360791 1.01333124 1.01305812
 1.01278854 1.0125225  1.01225999 1.012001   1.01174554 1.0114936
 1.01124517 1.01100026 1.01075885 1.01052094 1.01028653 1.01005562
 1.0098282  1.00960426 1.0093838  1.00916682 1.00895331 1.00874327
 1.0085367  1.00833358 1.00813391 1.0079377  1.00774493 1.00755559
 1.0073697  1.00718723 1.00700819 1.00683257 1.00666037 1.00649158
 1.00632619 1.00616421 1.00600562 1.00585042 1.00569861 1.00555018
 1.00540513 1.00526345 1.00512513 1.00499017 1.00485857 1.00473032
 1.00460541 1.00448384 1.00436561 1.0042507  1.00413912 1.00403086
 1.00392591 1.00382426 1.00372592 1.00363087 1.00353911 1.00345064
 1.00336544 1.00328352 1.00320487 1.00312948 1.00305734 1.00298845
 1.00292281 1.00286041 1.00280124 1.00274529 1.00269257 1.00264306
 1.00259676 1.00255366 1.00251376 1.00247705 1.00244353 1.00241318
 1.002386   1.002362   1.00234115 1.00232345 1.0023089  1.0022975
 1.00228923 1.00228408 1.00228206 1.00228316 1.00228736 1.00229467
 1.00230507 1.00231856 1.00233514 1.00235479 1.00237752 1.0024033
 1.00243215 1.00246404 1.00249898 1.00253696 1.00257797 1.002622
 1.00266904 1.0027191  1.00277216 1.00282822 1.00288726 1.00294929
 1.0030143  1.00308227 1.00315321 1.0032271  1.00330394 1.00338373
 1.00346644 1.00355208 1.00364065 1.00373212 1.00382651 1.00392379
 1.00402396 1.00412702 1.00423295 1.00434175 1.00445342 1.00456794
 1.00468532 1.00480553 1.00492858 1.00505445 1.00518314 1.00531464
 1.00544895 1.00558606 1.00572595 1.00586863 1.00601408 1.0061623
 1.00631328 1.00646702 1.00662349 1.00678271 1.00694465 1.00710932
 1.0072767  1.00744679 1.00761958 1.00779506 1.00797322 1.00815406
 1.00833757 1.00852374 1.00871257 1.00890404 1.00909815 1.00929489
 1.00949425 1.00969623 1.00990082 1.010108   1.01031778 1.01053014
 1.01074507 1.01096258 1.01118264 1.01140526 1.01163042 1.01185812
 1.01208834 1.01232109 1.01255635 1.01279412 1.01303438 1.01327714
 1.01352237 1.01377008 1.01402025 1.01427288 1.01452796 1.01478548
 1.01504543 1.01530781 1.0155726  1.01583981 1.01610941 1.01638141
 1.0166558  1.01693256 1.01721169 1.01749318 1.01777702 1.01806321
 1.01835173 1.01864259 1.01893576 1.01923124 1.01952903 1.01982911
 1.02013149 1.02043614 1.02074306 1.02105224 1.02136368 1.02167737
 1.0219933  1.02231145 1.02263183 1.02295442 1.02327922 1.02360622
 1.0239354  1.02426677 1.0246003  1.02493601 1.02527387 1.02561387
 1.02595602 1.0263003  1.02664671 1.02699522 1.02734585 1.02769857
 1.02805339 1.02841029 1.02876926 1.02913029 1.02949339 1.02985853
 1.03022572 1.03059494 1.03096618 1.03133944 1.0317147  1.03209197
 1.03247123 1.03285247 1.03323569 1.03362087 1.03400801 1.0343971
 1.03478814 1.03518111 1.035576   1.03597281 1.03637153 1.03677215
 1.03717466 1.03757906 1.03798534 1.03839348 1.03880348 1.03921533
 1.03962903 1.04004456 1.04046192 1.04088109 1.04130208 1.04172487
 1.04214945 1.04257582 1.04300397 1.04343388 1.04386556 1.04429899
 1.04473417 1.04517108 1.04560972 1.04605008 1.04649215 1.04693593
 1.0473814  1.04782856 1.0482774  1.04872792 1.04918009 1.04963392
 1.0500894  1.05054652 1.05100527 1.05146564 1.05192762 1.05239122
 1.05285641 1.05332319 1.05379155 1.05426149 1.054733   1.05520607
 1.05568068 1.05615684 1.05663453 1.05711375 1.05759449 1.05807674
 1.05856049 1.05904574 1.05953247 1.06002068 1.06051036 1.06100151
 1.06149411 1.06198816 1.06248364 1.06298056 1.0634789  1.06397866
 1.06447983 1.06498239 1.06548635 1.06599169 1.06649841 1.0670065
 1.06751595 1.06802675 1.0685389  1.06905238 1.0695672  1.07008333
 1.07060079 1.07111955 1.0716396  1.07216095 1.07268359 1.0732075
 1.07373267 1.07425911 1.0747868  1.07531574 1.07584592 1.07637733
 1.07690995 1.0774438  1.07797885 1.07851511 1.07905255 1.07959118
 1.08013099 1.08067197 1.08121411 1.08175741 1.08230186 1.08284744
 1.08339416 1.08394201 1.08449097 1.08504105 1.08559223 1.0861445
 1.08669787 1.08725231 1.08780783 1.08836442 1.08892207 1.08948077
 1.09004052 1.0906013  1.09116312 1.09172596 1.09228981 1.09285468
 1.09342055 1.09398741 1.09455526 1.09512409 1.0956939  1.09626467
 1.09683641 1.0974091  1.09798273 1.0985573  1.0991328  1.09970923
 1.10028658 1.10086484 1.101444   1.10202406 1.10260501 1.10318684
 1.10376955 1.10435313 1.10493757 1.10552287 1.10610902 1.10669601
 1.10728384 1.1078725  1.10846197 1.10905227 1.10964337 1.11023528
 1.11082798 1.11142147 1.11201575 1.1126108  1.11320662 1.1138032
 1.11440054 1.11499863 1.11559746 1.11619703 1.11679733 1.11739835
 1.11800009 1.11860254 1.1192057  1.11980955 1.1204141  1.12101933
 1.12162524 1.12223183 1.12283908 1.12344699 1.12405556 1.12466477
 1.12527463 1.12588512 1.12649624 1.12710798 1.12772034 1.12833331
 1.12894689 1.12956106 1.13017583 1.13079119 1.13140712 1.13202363
 1.13264071 1.13325835 1.13387655 1.1344953  1.13511459 1.13573442
 1.13635479 1.13697568 1.13759709 1.13821902 1.13884146 1.13946441
 1.14008785 1.14071178 1.1413362  1.1419611  1.14258648 1.14321233
 1.14383864 1.14446541 1.14509263 1.1457203  1.14634841 1.14697696
 1.14760594 1.14823534 1.14886516 1.1494954  1.15012604 1.15075709
 1.15138854 1.15202038 1.1526526  1.15328521 1.1539182  1.15455155
 1.15518527 1.15581935 1.15645379 1.15708858 1.15772371 1.15835918
 1.15899498 1.15963112 1.16026758 1.16090436 1.16154145 1.16217885
 1.16281655 1.16345455 1.16409285 1.16473144 1.16537031 1.16600945
 1.16664888 1.16728857 1.16792852 1.16856874 1.1692092  1.16984992
 1.17049088 1.17113209 1.17177352 1.17241519 1.17305708 1.1736992
 1.17434153 1.17498407 1.17562682 1.17626977 1.17691291 1.17755625
 1.17819978 1.1788435  1.17948739 1.18013145 1.18077569 1.18142009
 1.18206466 1.18270938 1.18335425 1.18399927 1.18464443 1.18528974
 1.18593518 1.18658075 1.18722644 1.18787226 1.18851819 1.18916424
 1.1898104  1.19045666 1.19110302 1.19174948 1.19239604 1.19304268
 1.1936894  1.19433621 1.19498309 1.19563004 1.19627706 1.19692415
 1.1975713  1.1982185  1.19886575 1.19951305 1.2001604  1.20080779
 1.20145521 1.20210267 1.20275015 1.20339766 1.20404519 1.20469274
 1.2053403  1.20598787 1.20663545 1.20728303 1.20793061 1.20857819
 1.20922576 1.20987331 1.21052085 1.21116837 1.21181587 1.21246334
 1.21311078 1.21375819 1.21440556 1.21505289 1.21570017 1.21634741
 1.2169946  1.21764174 1.21828882 1.21893584 1.21958279 1.22022968
 1.22087649 1.22152323 1.2221699  1.22281648 1.22346298 1.2241094
 1.22475572 1.22540195 1.22604809 1.22669413 1.22734006 1.22798589
 1.22863161 1.22927722 1.22992271 1.23056808 1.23121334 1.23185847
 1.23250348 1.23314835 1.2337931  1.23443771 1.23508218 1.23572651
 1.23637069 1.23701473 1.23765862 1.23830236 1.23894594 1.23958937
 1.24023263 1.24087573 1.24151867 1.24216144 1.24280403 1.24344646
 1.2440887  1.24473077 1.24537266 1.24601436 1.24665587 1.2472972
 1.24793834 1.24857928 1.24922002 1.24986057]
t = [1.09635465e+09 1.09635474e+09 1.09635482e+09 1.09635491e+09
 1.09635499e+09 1.09635508e+09 1.09635517e+09 1.09635525e+09
 1.09635534e+09 1.09635542e+09 1.09635551e+09 1.09635560e+09
 1.09635568e+09 1.09635577e+09 1.09635585e+09 1.09635594e+09
 1.09635603e+09 1.09635611e+09 1.09635620e+09 1.09635628e+09
 1.09635637e+09 1.09635646e+09 1.09635654e+09 1.09635663e+09
 1.09635672e+09 1.09635680e+09 1.09635689e+09 1.09635697e+09
 1.09635706e+09 1.09635715e+09 1.09635723e+09 1.09635732e+09
 1.09635740e+09 1.09635749e+09 1.09635758e+09 1.09635766e+09
 1.09635775e+09 1.09635783e+09 1.09635792e+09 1.09635801e+09
 1.09635809e+09 1.09635818e+09 1.09635826e+09 1.09635835e+09
 1.09635844e+09 1.09635852e+09 1.09635861e+09 1.09635869e+09
 1.09635878e+09 1.09635887e+09 1.09635895e+09 1.09635904e+09
 1.09635912e+09 1.09635921e+09 1.09635930e+09 1.09635938e+09
 1.09635947e+09 1.09635955e+09 1.09635964e+09 1.09635973e+09
 1.09635981e+09 1.09635990e+09 1.09635998e+09 1.09636007e+09
 1.09636016e+09 1.09636024e+09 1.09636033e+09 1.09636041e+09
 1.09636050e+09 1.09636059e+09 1.09636067e+09 1.09636076e+09
 1.09636084e+09 1.09636093e+09 1.09636102e+09 1.09636110e+09
 1.09636119e+09 1.09636127e+09 1.09636136e+09 1.09636145e+09
 1.09636153e+09 1.09636162e+09 1.09636171e+09 1.09636179e+09
 1.09636188e+09 1.09636196e+09 1.09636205e+09 1.09636214e+09
 1.09636222e+09 1.09636231e+09 1.09636239e+09 1.09636248e+09
 1.09636257e+09 1.09636265e+09 1.09636274e+09 1.09636282e+09
 1.09636291e+09 1.09636300e+09 1.09636308e+09 1.09636317e+09
 1.09636325e+09 1.09636334e+09 1.09636343e+09 1.09636351e+09
 1.09636360e+09 1.09636368e+09 1.09636377e+09 1.09636386e+09
 1.09636394e+09 1.09636403e+09 1.09636411e+09 1.09636420e+09
 1.09636429e+09 1.09636437e+09 1.09636446e+09 1.09636454e+09
 1.09636463e+09 1.09636472e+09 1.09636480e+09 1.09636489e+09
 1.09636497e+09 1.09636506e+09 1.09636515e+09 1.09636523e+09
 1.09636532e+09 1.09636540e+09 1.09636549e+09 1.09636558e+09
 1.09636566e+09 1.09636575e+09 1.09636583e+09 1.09636592e+09
 1.09636601e+09 1.09636609e+09 1.09636618e+09 1.09636627e+09
 1.09636635e+09 1.09636644e+09 1.09636652e+09 1.09636661e+09
 1.09636670e+09 1.09636678e+09 1.09636687e+09 1.09636695e+09
 1.09636704e+09 1.09636713e+09 1.09636721e+09 1.09636730e+09
 1.09636738e+09 1.09636747e+09 1.09636756e+09 1.09636764e+09
 1.09636773e+09 1.09636781e+09 1.09636790e+09 1.09636799e+09
 1.09636807e+09 1.09636816e+09 1.09636824e+09 1.09636833e+09
 1.09636842e+09 1.09636850e+09 1.09636859e+09 1.09636867e+09
 1.09636876e+09 1.09636885e+09 1.09636893e+09 1.09636902e+09
 1.09636910e+09 1.09636919e+09 1.09636928e+09 1.09636936e+09
 1.09636945e+09 1.09636953e+09 1.09636962e+09 1.09636971e+09
 1.09636979e+09 1.09636988e+09 1.09636996e+09 1.09637005e+09
 1.09637014e+09 1.09637022e+09 1.09637031e+09 1.09637039e+09
 1.09637048e+09 1.09637057e+09 1.09637065e+09 1.09637074e+09
 1.09637082e+09 1.09637091e+09 1.09637100e+09 1.09637108e+09
 1.09637117e+09 1.09637126e+09 1.09637134e+09 1.09637143e+09
 1.09637151e+09 1.09637160e+09 1.09637169e+09 1.09637177e+09
 1.09637186e+09 1.09637194e+09 1.09637203e+09 1.09637212e+09
 1.09637220e+09 1.09637229e+09 1.09637237e+09 1.09637246e+09
 1.09637255e+09 1.09637263e+09 1.09637272e+09 1.09637280e+09
 1.09637289e+09 1.09637298e+09 1.09637306e+09 1.09637315e+09
 1.09637323e+09 1.09637332e+09 1.09637341e+09 1.09637349e+09
 1.09637358e+09 1.09637366e+09 1.09637375e+09 1.09637384e+09
 1.09637392e+09 1.09637401e+09 1.09637409e+09 1.09637418e+09
 1.09637427e+09 1.09637435e+09 1.09637444e+09 1.09637452e+09
 1.09637461e+09 1.09637470e+09 1.09637478e+09 1.09637487e+09
 1.09637495e+09 1.09637504e+09 1.09637513e+09 1.09637521e+09
 1.09637530e+09 1.09637538e+09 1.09637547e+09 1.09637556e+09
 1.09637564e+09 1.09637573e+09 1.09637582e+09 1.09637590e+09
 1.09637599e+09 1.09637607e+09 1.09637616e+09 1.09637625e+09
 1.09637633e+09 1.09637642e+09 1.09637650e+09 1.09637659e+09
 1.09637668e+09 1.09637676e+09 1.09637685e+09 1.09637693e+09
 1.09637702e+09 1.09637711e+09 1.09637719e+09 1.09637728e+09
 1.09637736e+09 1.09637745e+09 1.09637754e+09 1.09637762e+09
 1.09637771e+09 1.09637779e+09 1.09637788e+09 1.09637797e+09
 1.09637805e+09 1.09637814e+09 1.09637822e+09 1.09637831e+09
 1.09637840e+09 1.09637848e+09 1.09637857e+09 1.09637865e+09
 1.09637874e+09 1.09637883e+09 1.09637891e+09 1.09637900e+09
 1.09637908e+09 1.09637917e+09 1.09637926e+09 1.09637934e+09
 1.09637943e+09 1.09637951e+09 1.09637960e+09 1.09637969e+09
 1.09637977e+09 1.09637986e+09 1.09637994e+09 1.09638003e+09
 1.09638012e+09 1.09638020e+09 1.09638029e+09 1.09638037e+09
 1.09638046e+09 1.09638055e+09 1.09638063e+09 1.09638072e+09
 1.09638081e+09 1.09638089e+09 1.09638098e+09 1.09638106e+09
 1.09638115e+09 1.09638124e+09 1.09638132e+09 1.09638141e+09
 1.09638149e+09 1.09638158e+09 1.09638167e+09 1.09638175e+09
 1.09638184e+09 1.09638192e+09 1.09638201e+09 1.09638210e+09
 1.09638218e+09 1.09638227e+09 1.09638235e+09 1.09638244e+09
 1.09638253e+09 1.09638261e+09 1.09638270e+09 1.09638278e+09
 1.09638287e+09 1.09638296e+09 1.09638304e+09 1.09638313e+09
 1.09638321e+09 1.09638330e+09 1.09638339e+09 1.09638347e+09
 1.09638356e+09 1.09638364e+09 1.09638373e+09 1.09638382e+09
 1.09638390e+09 1.09638399e+09 1.09638407e+09 1.09638416e+09
 1.09638425e+09 1.09638433e+09 1.09638442e+09 1.09638450e+09
 1.09638459e+09 1.09638468e+09 1.09638476e+09 1.09638485e+09
 1.09638493e+09 1.09638502e+09 1.09638511e+09 1.09638519e+09
 1.09638528e+09 1.09638537e+09 1.09638545e+09 1.09638554e+09
 1.09638562e+09 1.09638571e+09 1.09638580e+09 1.09638588e+09
 1.09638597e+09 1.09638605e+09 1.09638614e+09 1.09638623e+09
 1.09638631e+09 1.09638640e+09 1.09638648e+09 1.09638657e+09
 1.09638666e+09 1.09638674e+09 1.09638683e+09 1.09638691e+09
 1.09638700e+09 1.09638709e+09 1.09638717e+09 1.09638726e+09
 1.09638734e+09 1.09638743e+09 1.09638752e+09 1.09638760e+09
 1.09638769e+09 1.09638777e+09 1.09638786e+09 1.09638795e+09
 1.09638803e+09 1.09638812e+09 1.09638820e+09 1.09638829e+09
 1.09638838e+09 1.09638846e+09 1.09638855e+09 1.09638863e+09
 1.09638872e+09 1.09638881e+09 1.09638889e+09 1.09638898e+09
 1.09638906e+09 1.09638915e+09 1.09638924e+09 1.09638932e+09
 1.09638941e+09 1.09638949e+09 1.09638958e+09 1.09638967e+09
 1.09638975e+09 1.09638984e+09 1.09638992e+09 1.09639001e+09
 1.09639010e+09 1.09639018e+09 1.09639027e+09 1.09639036e+09
 1.09639044e+09 1.09639053e+09 1.09639061e+09 1.09639070e+09
 1.09639079e+09 1.09639087e+09 1.09639096e+09 1.09639104e+09
 1.09639113e+09 1.09639122e+09 1.09639130e+09 1.09639139e+09
 1.09639147e+09 1.09639156e+09 1.09639165e+09 1.09639173e+09
 1.09639182e+09 1.09639190e+09 1.09639199e+09 1.09639208e+09
 1.09639216e+09 1.09639225e+09 1.09639233e+09 1.09639242e+09
 1.09639251e+09 1.09639259e+09 1.09639268e+09 1.09639276e+09
 1.09639285e+09 1.09639294e+09 1.09639302e+09 1.09639311e+09
 1.09639319e+09 1.09639328e+09 1.09639337e+09 1.09639345e+09
 1.09639354e+09 1.09639362e+09 1.09639371e+09 1.09639380e+09
 1.09639388e+09 1.09639397e+09 1.09639405e+09 1.09639414e+09
 1.09639423e+09 1.09639431e+09 1.09639440e+09 1.09639448e+09
 1.09639457e+09 1.09639466e+09 1.09639474e+09 1.09639483e+09
 1.09639492e+09 1.09639500e+09 1.09639509e+09 1.09639517e+09
 1.09639526e+09 1.09639535e+09 1.09639543e+09 1.09639552e+09
 1.09639560e+09 1.09639569e+09 1.09639578e+09 1.09639586e+09
 1.09639595e+09 1.09639603e+09 1.09639612e+09 1.09639621e+09
 1.09639629e+09 1.09639638e+09 1.09639646e+09 1.09639655e+09
 1.09639664e+09 1.09639672e+09 1.09639681e+09 1.09639689e+09
 1.09639698e+09 1.09639707e+09 1.09639715e+09 1.09639724e+09
 1.09639732e+09 1.09639741e+09 1.09639750e+09 1.09639758e+09
 1.09639767e+09 1.09639775e+09 1.09639784e+09 1.09639793e+09
 1.09639801e+09 1.09639810e+09 1.09639818e+09 1.09639827e+09
 1.09639836e+09 1.09639844e+09 1.09639853e+09 1.09639861e+09
 1.09639870e+09 1.09639879e+09 1.09639887e+09 1.09639896e+09
 1.09639904e+09 1.09639913e+09 1.09639922e+09 1.09639930e+09
 1.09639939e+09 1.09639947e+09 1.09639956e+09 1.09639965e+09
 1.09639973e+09 1.09639982e+09 1.09639991e+09 1.09639999e+09
 1.09640008e+09 1.09640016e+09 1.09640025e+09 1.09640034e+09
 1.09640042e+09 1.09640051e+09 1.09640059e+09 1.09640068e+09
 1.09640077e+09 1.09640085e+09 1.09640094e+09 1.09640102e+09
 1.09640111e+09 1.09640120e+09 1.09640128e+09 1.09640137e+09
 1.09640145e+09 1.09640154e+09 1.09640163e+09 1.09640171e+09
 1.09640180e+09 1.09640188e+09 1.09640197e+09 1.09640206e+09
 1.09640214e+09 1.09640223e+09 1.09640231e+09 1.09640240e+09
 1.09640249e+09 1.09640257e+09 1.09640266e+09 1.09640274e+09
 1.09640283e+09 1.09640292e+09 1.09640300e+09 1.09640309e+09
