name =JUICE_ROI_GAN_4_4_02
flyby = ['2034 SEP 07 06:03:51', '2034 SEP 08 06:03:51']
Observation TW = <SpiceCell dtype = 1, length = 0, size = 3400, card = 14, is_set = 1, adjust = 0, init = 1, base = 94193961975248, data = 94193961975296>
Res(t) = [1.20604008 1.20504505 1.20405275 1.20306319 1.20207636 1.20109227
 1.20011092 1.19913232 1.19815645 1.19718333 1.19621296 1.19524534
 1.19428047 1.19331835 1.19235898 1.19140237 1.19044851 1.18949742
 1.18854908 1.18760351 1.1866607  1.18572066 1.18478338 1.18384888
 1.18291714 1.18198817 1.18106198 1.18013857 1.17921793 1.17830007
 1.17738499 1.17647269 1.17556317 1.17465644 1.17375249 1.17285133
 1.17195296 1.17105738 1.17016459 1.1692746  1.1683874  1.16750299
 1.16662139 1.16574258 1.16486657 1.16399336 1.16312296 1.16225536
 1.16139057 1.16052858 1.1596694  1.15881304 1.15795948 1.15710873
 1.1562608  1.15541568 1.15457338 1.15373389 1.15289723 1.15206338
 1.15123235 1.15040414 1.14957876 1.1487562  1.14793647 1.14711956
 1.14630548 1.14549422 1.1446858  1.14388021 1.14307745 1.14227752
 1.14148042 1.14068616 1.13989473 1.13910614 1.13832039 1.13753748
 1.1367574  1.13598017 1.13520577 1.13443422 1.13366551 1.13289964
 1.13213662 1.13137644 1.13061911 1.12986462 1.12911299 1.1283642
 1.12761826 1.12687517 1.12613493 1.12539754 1.124663   1.12393131
 1.12320248 1.1224765  1.12175337 1.1210331  1.12031569 1.11960113
 1.11888943 1.11818058 1.11747459 1.11677146 1.11607119 1.11537378
 1.11467923 1.11398753 1.1132987  1.11261273 1.11192961 1.11124936
 1.11057197 1.10989745 1.10922578 1.10855698 1.10789104 1.10722797
 1.10656775 1.1059104  1.10525592 1.1046043  1.10395554 1.10330965
 1.10266662 1.10202646 1.10138916 1.10075473 1.10012316 1.09949445
 1.09886862 1.09824564 1.09762553 1.09700829 1.09639391 1.0957824
 1.09517375 1.09456797 1.09396505 1.09336499 1.0927678  1.09217348
 1.09158202 1.09099342 1.09040768 1.08982481 1.08924481 1.08866766
 1.08809338 1.08752196 1.0869534  1.08638771 1.08582488 1.0852649
 1.08470779 1.08415354 1.08360215 1.08305361 1.08250794 1.08196512
 1.08142517 1.08088807 1.08035382 1.07982243 1.0792939  1.07876823
 1.0782454  1.07772544 1.07720832 1.07669406 1.07618265 1.07567409
 1.07516838 1.07466552 1.07416551 1.07366835 1.07317404 1.07268257
 1.07219395 1.07170817 1.07122523 1.07074514 1.0702679  1.06979349
 1.06932192 1.06885319 1.0683873  1.06792425 1.06746404 1.06700666
 1.06655211 1.0661004  1.06565152 1.06520546 1.06476224 1.06432185
 1.06388429 1.06344955 1.06301764 1.06258855 1.06216228 1.06173883
 1.06131821 1.0609004  1.06048541 1.06007323 1.05966387 1.05925733
 1.05885359 1.05845267 1.05805455 1.05765924 1.05726674 1.05687704
 1.05649015 1.05610605 1.05572476 1.05534626 1.05497056 1.05459766
 1.05422755 1.05386023 1.0534957  1.05313396 1.05277501 1.05241884
 1.05206545 1.05171485 1.05136702 1.05102197 1.0506797  1.0503402
 1.05000348 1.04966953 1.04933834 1.04900992 1.04868426 1.04836137
 1.04804124 1.04772387 1.04740925 1.04709739 1.04678828 1.04648192
 1.04617831 1.04587745 1.04557933 1.04528395 1.04499131 1.04470141
 1.04441425 1.04412982 1.04384812 1.04356914 1.0432929  1.04301938
 1.04274858 1.0424805  1.04221514 1.04195249 1.04169255 1.04143533
 1.04118081 1.040929   1.04067989 1.04043348 1.04018977 1.03994875
 1.03971043 1.0394748  1.03924185 1.03901159 1.03878401 1.03855912
 1.03833689 1.03811735 1.03790047 1.03768627 1.03747473 1.03726585
 1.03705964 1.03685608 1.03665518 1.03645694 1.03626134 1.03606839
 1.03587808 1.03569041 1.03550539 1.035323   1.03514324 1.03496611
 1.0347916  1.03461973 1.03445047 1.03428383 1.0341198  1.03395839
 1.03379958 1.03364338 1.03348979 1.03333879 1.03319039 1.03304458
 1.03290136 1.03276073 1.03262268 1.03248722 1.03235433 1.03222401
 1.03209627 1.03197109 1.03184848 1.03172842 1.03161093 1.03149599
 1.0313836  1.03127376 1.03116646 1.0310617  1.03095948 1.0308598
 1.03076264 1.03066802 1.03057591 1.03048633 1.03039926 1.03031471
 1.03023267 1.03015313 1.03007609 1.03000156 1.02992952 1.02985997
 1.02979291 1.02972833 1.02966623 1.02960662 1.02954947 1.0294948
 1.02944259 1.02939284 1.02934556 1.02930072 1.02925834 1.02921841
 1.02918092 1.02914587 1.02911326 1.02908308 1.02905532 1.02903
 1.02900709 1.0289866  1.02896852 1.02895285 1.02893959 1.02892873
 1.02892026 1.02891419 1.02891051 1.02890921 1.02891029 1.02891375
 1.02891959 1.02892779 1.02893836 1.02895129 1.02896658 1.02898422
 1.02900421 1.02902654 1.02905122 1.02907823 1.02910757 1.02913925
 1.02917324 1.02920956 1.02924819 1.02928913 1.02933238 1.02937794
 1.02942579 1.02947594 1.02952838 1.0295831  1.02964011 1.02969939
 1.02976095 1.02982477 1.02989086 1.02995921 1.03002982 1.03010268
 1.03017778 1.03025513 1.03033472 1.03041654 1.03050059 1.03058687
 1.03067536 1.03076608 1.030859   1.03095413 1.03105147 1.031151
 1.03125273 1.03135665 1.03146275 1.03157104 1.0316815  1.03179413
 1.03190893 1.03202589 1.03214501 1.03226628 1.0323897  1.03251527
 1.03264298 1.03277282 1.03290479 1.03303889 1.03317511 1.03331344
 1.03345389 1.03359645 1.0337411  1.03388786 1.03403671 1.03418765
 1.03434067 1.03449577 1.03465295 1.0348122  1.03497351 1.03513689
 1.03530232 1.0354698  1.03563932 1.03581089 1.0359845  1.03616014
 1.0363378  1.03651749 1.0366992  1.03688292 1.03706865 1.03725638
 1.03744612 1.03763784 1.03783156 1.03802726 1.03822494 1.03842459
 1.03862622 1.03882981 1.03903536 1.03924286 1.03945232 1.03966372
 1.03987707 1.04009235 1.04030956 1.04052869 1.04074975 1.04097273
 1.04119762 1.04142441 1.04165311 1.04188371 1.04211619 1.04235057
 1.04258683 1.04282496 1.04306497 1.04330684 1.04355058 1.04379618
 1.04404363 1.04429292 1.04454406 1.04479704 1.04505186 1.0453085
 1.04556696 1.04582724 1.04608934 1.04635324 1.04661895 1.04688646
 1.04715576 1.04742685 1.04769973 1.04797438 1.04825081 1.048529
 1.04880896 1.04909068 1.04937415 1.04965938 1.04994634 1.05023505
 1.05052549 1.05081766 1.05111155 1.05140716 1.05170449 1.05200352
 1.05230427 1.0526067  1.05291084 1.05321666 1.05352417 1.05383336
 1.05414422 1.05445675 1.05477095 1.0550868  1.05540431 1.05572347
 1.05604427 1.05636672 1.05669079 1.0570165  1.05734383 1.05767278
 1.05800335 1.05833552 1.0586693  1.05900468 1.05934166 1.05968022
 1.06002037 1.0603621  1.0607054  1.06105027 1.06139671 1.0617447
 1.06209426 1.06244536 1.062798   1.06315219 1.06350791 1.06386516
 1.06422394 1.06458423 1.06494604 1.06530936 1.06567419 1.06604052
 1.06640834 1.06677765 1.06714844 1.06752072 1.06789447 1.0682697
 1.06864638 1.06902453 1.06940414 1.06978519 1.07016769 1.07055163
 1.07093701 1.07132382 1.07171205 1.07210171 1.07249278 1.07288526
 1.07327915 1.07367444 1.07407113 1.07446921 1.07486867 1.07526952
 1.07567175 1.07607534 1.07648031 1.07688663 1.07729431 1.07770335
 1.07811373 1.07852546 1.07893852 1.07935292 1.07976865 1.0801857
 1.08060406 1.08102375 1.08144474 1.08186703 1.08229062 1.08271551
 1.08314169 1.08356915 1.0839979  1.08442791 1.0848592  1.08529176
 1.08572557 1.08616064 1.08659696 1.08703453 1.08747334 1.08791339
 1.08835467 1.08879717 1.0892409  1.08968585 1.09013201 1.09057938
 1.09102795 1.09147772 1.09192868 1.09238084 1.09283418 1.0932887
 1.0937444  1.09420126 1.09465929 1.09511849 1.09557884 1.09604034
 1.09650299 1.09696678 1.09743172 1.09789778 1.09836497 1.09883329
 1.09930273 1.09977328 1.10024494 1.10071771 1.10119158 1.10166655
 1.10214261 1.10261975 1.10309798 1.10357729 1.10405767 1.10453912
 1.10502163 1.1055052  1.10598983 1.10647552 1.10696224 1.10745001
 1.10793882 1.10842866 1.10891953 1.10941142 1.10990433 1.11039826
 1.1108932  1.11138914 1.11188609 1.11238403 1.11288297 1.11338289
 1.1138838  1.11438569 1.11488855 1.11539238 1.11589719 1.11640295
 1.11690967 1.11741734 1.11792596 1.11843553 1.11894604 1.11945748
 1.11996986 1.12048316 1.12099739 1.12151253 1.12202859 1.12254556
 1.12306343 1.12358221 1.12410188 1.12462245 1.1251439  1.12566624
 1.12618946 1.12671356 1.12723853 1.12776436 1.12829106 1.12881862
 1.12934704 1.1298763  1.13040641 1.13093737 1.13146916 1.13200179
 1.13253525 1.13306953 1.13360463 1.13414056 1.1346773  1.13521484
 1.1357532  1.13629235 1.1368323  1.13737305 1.13791458 1.1384569
 1.139      1.13954388 1.14008853 1.14063396 1.14118014 1.14172709
 1.1422748  1.14282326 1.14337247 1.14392242 1.14447312 1.14502455
 1.14557672 1.14612961 1.14668324 1.14723758 1.14779264 1.14834842
 1.14890491 1.1494621  1.15002    1.1505786  1.15113789 1.15169787
 1.15225854 1.15281989 1.15338193 1.15394464 1.15450802 1.15507207
 1.15563678 1.15620216 1.15676819 1.15733488 1.15790221 1.1584702
 1.15903882 1.15960809 1.16017799 1.16074852 1.16131967 1.16189146
 1.16246386 1.16303688 1.16361051 1.16418475 1.1647596  1.16533505
 1.1659111  1.16648775 1.16706498 1.16764281 1.16822122 1.16880021
 1.16937977 1.16995992 1.17054063 1.17112191 1.17170375 1.17228615
 1.17286911 1.17345262 1.17403669 1.17462129 1.17520644 1.17579214
 1.17637836 1.17696512 1.17755241 1.17814022 1.17872856 1.17931741
 1.17990678 1.18049667 1.18108706 1.18167796 1.18226936 1.18286126
 1.18345365 1.18404654 1.18463992 1.18523378 1.18582813 1.18642295
 1.18701825 1.18761403 1.18821027 1.18880698 1.18940416 1.19000179
 1.19059988 1.19119843 1.19179742 1.19239687 1.19299676 1.19359709
 1.19419785 1.19479906 1.19540069 1.19600276 1.19660525 1.19720816
 1.19781149 1.19841524 1.1990194  1.19962398 1.20022896 1.20083434
 1.20144013 1.20204632 1.2026529  1.20325987 1.20386724 1.20447499
 1.20508312 1.20569164 1.20630053 1.2069098  1.20751944 1.20812946
 1.20873983 1.20935057 1.20996167 1.21057313 1.21118495 1.21179711
 1.21240963 1.21302249 1.2136357  1.21424925 1.21486313 1.21547736
 1.21609191 1.21670679 1.21732201 1.21793754 1.2185534  1.21916958
 1.21978607 1.22040288 1.22102    1.22163742 1.22225515 1.22287319
 1.22349153 1.22411016 1.22472909 1.22534831 1.22596782 1.22658762
 1.2272077  1.22782807 1.22844872 1.22906964 1.22969084 1.23031231
 1.23093405 1.23155605 1.23217833 1.23280086 1.23342365 1.2340467
 1.23467001 1.23529356 1.23591737 1.23654143 1.23716572 1.23779027
 1.23841505 1.23904007 1.23966532 1.24029081 1.24091653 1.24154248
 1.24216865 1.24279505 1.24342167 1.24404851 1.24467556 1.24530283
 1.24593031 1.246558   1.2471859  1.247814   1.24844231 1.24907082
 1.24969952 1.25032843 1.25095752 1.25158681 1.25221629 1.25284596
 1.25347581 1.25410585 1.25473607 1.25536646 1.25599704 1.25662778
 1.25725871 1.2578898  1.25852106 1.25915249 1.25978408 1.26041583
 1.26104775 1.26167982 1.26231205 1.26294443 1.26357697 1.26420965
 1.26484249 1.26547547 1.2661086  1.26674186 1.26737527 1.26800882
 1.2686425  1.26927632 1.26991027 1.27054435 1.27117856 1.2718129
 1.27244736 1.27308195 1.27371666 1.27435148 1.27498643 1.27562149
 1.27625667 1.27689195 1.27752735 1.27816286 1.27879847 1.27943419
 1.28007002 1.28070594 1.28134196 1.28197809 1.28261431 1.28325062
 1.28388703 1.28452353 1.28516012 1.28579679 1.28643356 1.2870704
 1.28770733 1.28834435 1.28898144 1.28961861 1.29025586 1.29089318
 1.29153057 1.29216804 1.29280558 1.29344319 1.29408086 1.2947186
 1.2953564  1.29599427 1.29663219 1.29727018 1.29790822 1.29854633
 1.29918448 1.29982269 1.30046095 1.30109926 1.30173763 1.30237604
 1.30301449 1.30365299 1.30429154 1.30493012 1.30556875 1.30620742
 1.30684612 1.30748486 1.30812364 1.30876245 1.30940129 1.31004016
 1.31067907 1.311318   1.31195696 1.31259595 1.31323496 1.31387399
 1.31451305 1.31515213 1.31579122 1.31643034]
t = [1.09451325e+09 1.09451332e+09 1.09451338e+09 1.09451345e+09
 1.09451352e+09 1.09451359e+09 1.09451365e+09 1.09451372e+09
 1.09451379e+09 1.09451385e+09 1.09451392e+09 1.09451399e+09
 1.09451406e+09 1.09451412e+09 1.09451419e+09 1.09451426e+09
 1.09451432e+09 1.09451439e+09 1.09451446e+09 1.09451453e+09
 1.09451459e+09 1.09451466e+09 1.09451473e+09 1.09451479e+09
 1.09451486e+09 1.09451493e+09 1.09451500e+09 1.09451506e+09
 1.09451513e+09 1.09451520e+09 1.09451526e+09 1.09451533e+09
 1.09451540e+09 1.09451547e+09 1.09451553e+09 1.09451560e+09
 1.09451567e+09 1.09451573e+09 1.09451580e+09 1.09451587e+09
 1.09451593e+09 1.09451600e+09 1.09451607e+09 1.09451614e+09
 1.09451620e+09 1.09451627e+09 1.09451634e+09 1.09451640e+09
 1.09451647e+09 1.09451654e+09 1.09451661e+09 1.09451667e+09
 1.09451674e+09 1.09451681e+09 1.09451687e+09 1.09451694e+09
 1.09451701e+09 1.09451708e+09 1.09451714e+09 1.09451721e+09
 1.09451728e+09 1.09451734e+09 1.09451741e+09 1.09451748e+09
 1.09451755e+09 1.09451761e+09 1.09451768e+09 1.09451775e+09
 1.09451781e+09 1.09451788e+09 1.09451795e+09 1.09451802e+09
 1.09451808e+09 1.09451815e+09 1.09451822e+09 1.09451828e+09
 1.09451835e+09 1.09451842e+09 1.09451849e+09 1.09451855e+09
 1.09451862e+09 1.09451869e+09 1.09451875e+09 1.09451882e+09
 1.09451889e+09 1.09451896e+09 1.09451902e+09 1.09451909e+09
 1.09451916e+09 1.09451922e+09 1.09451929e+09 1.09451936e+09
 1.09451942e+09 1.09451949e+09 1.09451956e+09 1.09451963e+09
 1.09451969e+09 1.09451976e+09 1.09451983e+09 1.09451989e+09
 1.09451996e+09 1.09452003e+09 1.09452010e+09 1.09452016e+09
 1.09452023e+09 1.09452030e+09 1.09452036e+09 1.09452043e+09
 1.09452050e+09 1.09452057e+09 1.09452063e+09 1.09452070e+09
 1.09452077e+09 1.09452083e+09 1.09452090e+09 1.09452097e+09
 1.09452104e+09 1.09452110e+09 1.09452117e+09 1.09452124e+09
 1.09452130e+09 1.09452137e+09 1.09452144e+09 1.09452151e+09
 1.09452157e+09 1.09452164e+09 1.09452171e+09 1.09452177e+09
 1.09452184e+09 1.09452191e+09 1.09452198e+09 1.09452204e+09
 1.09452211e+09 1.09452218e+09 1.09452224e+09 1.09452231e+09
 1.09452238e+09 1.09452245e+09 1.09452251e+09 1.09452258e+09
 1.09452265e+09 1.09452271e+09 1.09452278e+09 1.09452285e+09
 1.09452292e+09 1.09452298e+09 1.09452305e+09 1.09452312e+09
 1.09452318e+09 1.09452325e+09 1.09452332e+09 1.09452338e+09
 1.09452345e+09 1.09452352e+09 1.09452359e+09 1.09452365e+09
 1.09452372e+09 1.09452379e+09 1.09452385e+09 1.09452392e+09
 1.09452399e+09 1.09452406e+09 1.09452412e+09 1.09452419e+09
 1.09452426e+09 1.09452432e+09 1.09452439e+09 1.09452446e+09
 1.09452453e+09 1.09452459e+09 1.09452466e+09 1.09452473e+09
 1.09452479e+09 1.09452486e+09 1.09452493e+09 1.09452500e+09
 1.09452506e+09 1.09452513e+09 1.09452520e+09 1.09452526e+09
 1.09452533e+09 1.09452540e+09 1.09452547e+09 1.09452553e+09
 1.09452560e+09 1.09452567e+09 1.09452573e+09 1.09452580e+09
 1.09452587e+09 1.09452594e+09 1.09452600e+09 1.09452607e+09
 1.09452614e+09 1.09452620e+09 1.09452627e+09 1.09452634e+09
 1.09452641e+09 1.09452647e+09 1.09452654e+09 1.09452661e+09
 1.09452667e+09 1.09452674e+09 1.09452681e+09 1.09452687e+09
 1.09452694e+09 1.09452701e+09 1.09452708e+09 1.09452714e+09
 1.09452721e+09 1.09452728e+09 1.09452734e+09 1.09452741e+09
 1.09452748e+09 1.09452755e+09 1.09452761e+09 1.09452768e+09
 1.09452775e+09 1.09452781e+09 1.09452788e+09 1.09452795e+09
 1.09452802e+09 1.09452808e+09 1.09452815e+09 1.09452822e+09
 1.09452828e+09 1.09452835e+09 1.09452842e+09 1.09452849e+09
 1.09452855e+09 1.09452862e+09 1.09452869e+09 1.09452875e+09
 1.09452882e+09 1.09452889e+09 1.09452896e+09 1.09452902e+09
 1.09452909e+09 1.09452916e+09 1.09452922e+09 1.09452929e+09
 1.09452936e+09 1.09452943e+09 1.09452949e+09 1.09452956e+09
 1.09452963e+09 1.09452969e+09 1.09452976e+09 1.09452983e+09
 1.09452990e+09 1.09452996e+09 1.09453003e+09 1.09453010e+09
 1.09453016e+09 1.09453023e+09 1.09453030e+09 1.09453037e+09
 1.09453043e+09 1.09453050e+09 1.09453057e+09 1.09453063e+09
 1.09453070e+09 1.09453077e+09 1.09453083e+09 1.09453090e+09
 1.09453097e+09 1.09453104e+09 1.09453110e+09 1.09453117e+09
 1.09453124e+09 1.09453130e+09 1.09453137e+09 1.09453144e+09
 1.09453151e+09 1.09453157e+09 1.09453164e+09 1.09453171e+09
 1.09453177e+09 1.09453184e+09 1.09453191e+09 1.09453198e+09
 1.09453204e+09 1.09453211e+09 1.09453218e+09 1.09453224e+09
 1.09453231e+09 1.09453238e+09 1.09453245e+09 1.09453251e+09
 1.09453258e+09 1.09453265e+09 1.09453271e+09 1.09453278e+09
 1.09453285e+09 1.09453292e+09 1.09453298e+09 1.09453305e+09
 1.09453312e+09 1.09453318e+09 1.09453325e+09 1.09453332e+09
 1.09453339e+09 1.09453345e+09 1.09453352e+09 1.09453359e+09
 1.09453365e+09 1.09453372e+09 1.09453379e+09 1.09453386e+09
 1.09453392e+09 1.09453399e+09 1.09453406e+09 1.09453412e+09
 1.09453419e+09 1.09453426e+09 1.09453432e+09 1.09453439e+09
 1.09453446e+09 1.09453453e+09 1.09453459e+09 1.09453466e+09
 1.09453473e+09 1.09453479e+09 1.09453486e+09 1.09453493e+09
 1.09453500e+09 1.09453506e+09 1.09453513e+09 1.09453520e+09
 1.09453526e+09 1.09453533e+09 1.09453540e+09 1.09453547e+09
 1.09453553e+09 1.09453560e+09 1.09453567e+09 1.09453573e+09
 1.09453580e+09 1.09453587e+09 1.09453594e+09 1.09453600e+09
 1.09453607e+09 1.09453614e+09 1.09453620e+09 1.09453627e+09
 1.09453634e+09 1.09453641e+09 1.09453647e+09 1.09453654e+09
 1.09453661e+09 1.09453667e+09 1.09453674e+09 1.09453681e+09
 1.09453688e+09 1.09453694e+09 1.09453701e+09 1.09453708e+09
 1.09453714e+09 1.09453721e+09 1.09453728e+09 1.09453735e+09
 1.09453741e+09 1.09453748e+09 1.09453755e+09 1.09453761e+09
 1.09453768e+09 1.09453775e+09 1.09453782e+09 1.09453788e+09
 1.09453795e+09 1.09453802e+09 1.09453808e+09 1.09453815e+09
 1.09453822e+09 1.09453828e+09 1.09453835e+09 1.09453842e+09
 1.09453849e+09 1.09453855e+09 1.09453862e+09 1.09453869e+09
 1.09453875e+09 1.09453882e+09 1.09453889e+09 1.09453896e+09
 1.09453902e+09 1.09453909e+09 1.09453916e+09 1.09453922e+09
 1.09453929e+09 1.09453936e+09 1.09453943e+09 1.09453949e+09
 1.09453956e+09 1.09453963e+09 1.09453969e+09 1.09453976e+09
 1.09453983e+09 1.09453990e+09 1.09453996e+09 1.09454003e+09
 1.09454010e+09 1.09454016e+09 1.09454023e+09 1.09454030e+09
 1.09454037e+09 1.09454043e+09 1.09454050e+09 1.09454057e+09
 1.09454063e+09 1.09454070e+09 1.09454077e+09 1.09454084e+09
 1.09454090e+09 1.09454097e+09 1.09454104e+09 1.09454110e+09
 1.09454117e+09 1.09454124e+09 1.09454131e+09 1.09454137e+09
 1.09454144e+09 1.09454151e+09 1.09454157e+09 1.09454164e+09
 1.09454171e+09 1.09454177e+09 1.09454184e+09 1.09454191e+09
 1.09454198e+09 1.09454204e+09 1.09454211e+09 1.09454218e+09
 1.09454224e+09 1.09454231e+09 1.09454238e+09 1.09454245e+09
 1.09454251e+09 1.09454258e+09 1.09454265e+09 1.09454271e+09
 1.09454278e+09 1.09454285e+09 1.09454292e+09 1.09454298e+09
 1.09454305e+09 1.09454312e+09 1.09454318e+09 1.09454325e+09
 1.09454332e+09 1.09454339e+09 1.09454345e+09 1.09454352e+09
 1.09454359e+09 1.09454365e+09 1.09454372e+09 1.09454379e+09
 1.09454386e+09 1.09454392e+09 1.09454399e+09 1.09454406e+09
 1.09454412e+09 1.09454419e+09 1.09454426e+09 1.09454433e+09
 1.09454439e+09 1.09454446e+09 1.09454453e+09 1.09454459e+09
 1.09454466e+09 1.09454473e+09 1.09454480e+09 1.09454486e+09
 1.09454493e+09 1.09454500e+09 1.09454506e+09 1.09454513e+09
 1.09454520e+09 1.09454527e+09 1.09454533e+09 1.09454540e+09
 1.09454547e+09 1.09454553e+09 1.09454560e+09 1.09454567e+09
 1.09454573e+09 1.09454580e+09 1.09454587e+09 1.09454594e+09
 1.09454600e+09 1.09454607e+09 1.09454614e+09 1.09454620e+09
 1.09454627e+09 1.09454634e+09 1.09454641e+09 1.09454647e+09
 1.09454654e+09 1.09454661e+09 1.09454667e+09 1.09454674e+09
 1.09454681e+09 1.09454688e+09 1.09454694e+09 1.09454701e+09
 1.09454708e+09 1.09454714e+09 1.09454721e+09 1.09454728e+09
 1.09454735e+09 1.09454741e+09 1.09454748e+09 1.09454755e+09
 1.09454761e+09 1.09454768e+09 1.09454775e+09 1.09454782e+09
 1.09454788e+09 1.09454795e+09 1.09454802e+09 1.09454808e+09
 1.09454815e+09 1.09454822e+09 1.09454829e+09 1.09454835e+09
 1.09454842e+09 1.09454849e+09 1.09454855e+09 1.09454862e+09
 1.09454869e+09 1.09454876e+09 1.09454882e+09 1.09454889e+09
 1.09454896e+09 1.09454902e+09 1.09454909e+09 1.09454916e+09
 1.09454922e+09 1.09454929e+09 1.09454936e+09 1.09454943e+09
 1.09454949e+09 1.09454956e+09 1.09454963e+09 1.09454969e+09
 1.09454976e+09 1.09454983e+09 1.09454990e+09 1.09454996e+09
 1.09455003e+09 1.09455010e+09 1.09455016e+09 1.09455023e+09
 1.09455030e+09 1.09455037e+09 1.09455043e+09 1.09455050e+09
 1.09455057e+09 1.09455063e+09 1.09455070e+09 1.09455077e+09
 1.09455084e+09 1.09455090e+09 1.09455097e+09 1.09455104e+09
