name =JUICE_ROI_GAN_3_0_08
flyby = ['2033 NOV 26 18:22:11', '2033 NOV 27 18:22:11']
Observation TW = <SpiceCell dtype = 1, length = 0, size = 2800, card = 8, is_set = 1, adjust = 0, init = 1, base = 94027217902400, data = 94027217902448>
Res(t) = [0.28535059 0.28451237 0.28387343 0.28341438 0.28311836 0.28297055
 0.28295795 0.28306905 0.28329364 0.28362262 0.28404786 0.28456205
 0.28515864 0.28583169 0.28657585 0.28738624 0.28825844 0.28918841
 0.29017246 0.2912072  0.29228954 0.29341661 0.29458579 0.29579465
 0.29704094 0.29832259 0.29963767 0.30098439 0.30236108 0.30376619
 0.30519827 0.30665597 0.30813803 0.30964326 0.31117054 0.31271885
 0.3142872  0.31587467 0.31748041 0.31910358 0.32074342 0.32239922
 0.32407027 0.32575595 0.32745562 0.32916871 0.33089468 0.33263299
 0.33438316 0.33614471 0.3379172  0.3397002  0.34149331 0.34329615
 0.34510834 0.34692954 0.34875941 0.35059764 0.35244393 0.35429797
 0.3561595  0.35802825 0.35990397 0.36178641 0.36367534 0.36557054
 0.36747179 0.3693789  0.37129165 0.37320987 0.37513337 0.37706199
 0.37899554 0.38093388 0.38287684 0.38482428 0.38677605 0.38873203
 0.39069207 0.39265604 0.39462384 0.39659532 0.39857039 0.40054893
 0.40253083 0.404516   0.40650433 0.40849573 0.4104901  0.41248735
 0.41448741 0.41649018 0.41849559 0.42050356 0.422514   0.42452686
 0.42654205 0.42855951 0.43057918 0.43260098 0.43462487 0.43665077
 0.43867862 0.44070838 0.44273998 0.44477338 0.44680852 0.44884536
 0.45088383 0.45292391 0.45496553 0.45700867 0.45905326 0.46109928
 0.46314668 0.46519542 0.46724547 0.46929678 0.47134932 0.47340306
 0.47545795 0.47751398 0.4795711  0.48162928 0.4836885  0.48574872
 0.48780991 0.48987205 0.49193511 0.49399906 0.49606388 0.49812954
 0.50019601 0.50226328 0.50433131 0.50640009 0.5084696  0.5105398
 0.51261069 0.51468224 0.51675443 0.51882724 0.52090065 0.52297465
 0.52504921 0.52712432 0.52919996 0.53127611 0.53335277 0.5354299
 0.5375075  0.53958555 0.54166404 0.54374295 0.54582227 0.54790199
 0.54998208 0.55206254 0.55414336 0.55622452 0.55830601 0.56038782
 0.56246994 0.56455235 0.56663505 0.56871802 0.57080125 0.57288474
 0.57496847 0.57705244 0.57913663 0.58122103 0.58330564 0.58539045
 0.58747544 0.58956061 0.59164596 0.59373147 0.59581713 0.59790294
 0.59998889 0.60207497 0.60416118 0.6062475  0.60833394 0.61042048
 0.61250713 0.61459386 0.61668068 0.61876757 0.62085454 0.62294158
 0.62502868 0.62711584 0.62920305 0.6312903  0.63337759 0.63546492
 0.63755228 0.63963967 0.64172708 0.6438145  0.64590193 0.64798938
 0.65007682 0.65216427 0.6542517  0.65633913 0.65842655 0.66051395
 0.66260133 0.66468869 0.66677602 0.66886331 0.67095058 0.6730378
 0.67512498 0.67721212 0.67929922 0.68138626 0.68347325 0.68556019
 0.68764706 0.68973388 0.69182063 0.69390731 0.69599393 0.69808047
 0.70016694 0.70225334 0.70433965 0.70642589 0.70851204 0.71059811
 0.7126841  0.71476999 0.71685579 0.71894151 0.72102712 0.72311265
 0.72519807 0.7272834  0.72936862 0.73145374 0.73353876 0.73562368
 0.73770848 0.73979318 0.74187777 0.74396225 0.74604662 0.74813087
 0.75021501 0.75229903 0.75438294 0.75646673 0.7585504  0.76063396
 0.76271739 0.7648007  0.76688389 0.76896695 0.7710499  0.77313271
 0.7752154  0.77729797 0.77938041 0.78146272 0.7835449  0.78562696
 0.78770888 0.78979068 0.79187234 0.79395388 0.79603528 0.79811655
 0.80019769 0.8022787  0.80435958 0.80644032 0.80852093 0.8106014
 0.81268174 0.81476195 0.81684202 0.81892196 0.82100176 0.82308143
 0.82516096 0.82724036 0.82931962 0.83139875 0.83347774 0.8355566
 0.83763532 0.83971391 0.84179236 0.84387068 0.84594886 0.84802691
 0.85010482 0.8521826  0.85426024 0.85633775 0.85841512 0.86049236
 0.86256947 0.86464644 0.86672328 0.86879998 0.87087655 0.87295299
 0.8750293  0.87710547 0.87918152 0.88125743 0.88333321 0.88540886
 0.88748438 0.88955977 0.89163503 0.89371016 0.89578517 0.89786004
 0.89993479 0.90200941 0.9040839  0.90615827 0.90823251 0.91030663
 0.91238062 0.91445448 0.91652822 0.91860184 0.92067534 0.92274872
 0.92482197 0.9268951  0.92896811 0.93104101 0.93311378 0.93518643
 0.93725897 0.93933139 0.9414037  0.94347588 0.94554796 0.94761991
 0.94969176 0.95176349 0.95383511 0.95590662 0.95797801 0.9600493
 0.96212048 0.96419155 0.96626251 0.96833336 0.97040411 0.97247475
 0.97454529 0.97661572 0.97868605 0.98075627 0.9828264  0.98489642
 0.98696635 0.98903617 0.9911059  0.99317553 0.99524506 0.9973145
 0.99938384 1.00145309 1.00352225 1.00559131 1.00766028 1.00972916
 1.01179795 1.01386665 1.01593527 1.0180038  1.02007224 1.02214059
 1.02420887 1.02627706 1.02834516 1.03041319 1.03248113 1.034549
 1.03661679 1.0386845  1.04075213 1.04281969 1.04488717 1.04695458
 1.04902192 1.05108918 1.05315638 1.0552235  1.05729056 1.05935755
 1.06142447 1.06349133 1.06555812 1.06762485 1.06969152 1.07175812
 1.07382467 1.07589115 1.07795758 1.08002395 1.08209026 1.08415652
 1.08622272 1.08828887 1.09035497 1.09242101 1.09448701 1.09655296
 1.09861886 1.10068471 1.10275052 1.10481628 1.106882   1.10894768
 1.11101331 1.11307891 1.11514447 1.11720999 1.11927547 1.12134091
 1.12340632 1.1254717  1.12753705 1.12960236 1.13166764 1.1337329
 1.13579812 1.13786332 1.1399285  1.14199365 1.14405877 1.14612387
 1.14818896 1.15025402 1.15231906 1.15438409 1.15644909 1.15851409
 1.16057907 1.16264403 1.16470899 1.16677393 1.16883886 1.17090379
 1.1729687  1.17503361 1.17709852 1.17916342 1.18122832 1.18329322
 1.18535812 1.18742301 1.18948792 1.19155282 1.19361773 1.19568264
 1.19774756 1.19981249 1.20187743 1.20394237 1.20600733 1.2080723
 1.21013729 1.21220229 1.21426731 1.21633234 1.2183974  1.22046247
 1.22252756 1.22459268 1.22665782 1.22872299 1.23078818 1.23285339
 1.23491864 1.23698392 1.23904922 1.24111456 1.24317994 1.24524534
 1.24731078 1.24937626 1.25144178 1.25350734 1.25557294 1.25763858
 1.25970426 1.26176999 1.26383576 1.26590158 1.26796744 1.27003336
 1.27209933 1.27416535 1.27623142 1.27829754 1.28036373 1.28242996
 1.28449626 1.28656261 1.28862903 1.29069551 1.29276205 1.29482865
 1.29689532 1.29896206 1.30102886 1.30309573 1.30516268 1.30722969
 1.30929678 1.31136394 1.31343118 1.3154985  1.31756589 1.31963336
 1.32170091 1.32376855 1.32583626 1.32790407 1.32997195 1.33203993
 1.33410799 1.33617614 1.33824438 1.34031271 1.34238114 1.34444966
 1.34651828 1.34858699 1.3506558  1.35272471 1.35479372 1.35686284
 1.35893205 1.36100138 1.3630708  1.36514034 1.36720998 1.36927973
 1.3713496  1.37341957 1.37548966 1.37755986 1.37963018 1.38170062
 1.38377117 1.38584185 1.38791265 1.38998357 1.39205461 1.39412578
 1.39619707 1.39826849 1.40034004 1.40241172 1.40448353 1.40655548
 1.40862756 1.41069977 1.41277212 1.41484461 1.41691723 1.41899
 1.42106291 1.42313596 1.42520916 1.4272825  1.42935599 1.43142963
 1.43350341 1.43557735 1.43765144 1.43972568 1.44180008 1.44387463
 1.44594934 1.44802421 1.45009924 1.45217443 1.45424978 1.4563253
 1.45840098 1.46047682 1.46255284 1.46462902 1.46670537 1.4687819
 1.47085859 1.47293547 1.47501251 1.47708973 1.47916714 1.48124472
 1.48332248 1.48540042 1.48747854 1.48955685 1.49163535 1.49371403
 1.4957929  1.49787196 1.49995121 1.50203066 1.50411029 1.50619012
 1.50827015 1.51035038 1.5124308  1.51451142 1.51659225 1.51867328
 1.52075451 1.52283594 1.52491759 1.52699944 1.5290815  1.53116377
 1.53324625 1.53532894 1.53741185 1.53949498 1.54157832 1.54366188
 1.54574566 1.54782966 1.54991388 1.55199832 1.55408299 1.55616789
 1.55825301 1.56033836 1.56242395 1.56450976 1.5665958  1.56868208
 1.5707686  1.57285535 1.57494234 1.57702957 1.57911703 1.58120474
 1.5832927  1.58538089 1.58746934 1.58955802 1.59164696 1.59373615
 1.59582559 1.59791528 1.60000522 1.60209542 1.60418587 1.60627658
 1.60836755 1.61045878 1.61255027 1.61464202 1.61673404 1.61882632
 1.62091887 1.62301169 1.62510477 1.62719813 1.62929175 1.63138565
 1.63347983 1.63557428 1.637669   1.63976401 1.64185929 1.64395486
 1.64605071 1.64814684 1.65024325 1.65233995 1.65443694 1.65653422
 1.65863178 1.66072964 1.66282779 1.66492624 1.66702498 1.66912401
 1.67122334 1.67332298 1.67542291 1.67752314 1.67962368 1.68172452
 1.68382567 1.68592712 1.68802889 1.69013096 1.69223334 1.69433603
 1.69643904 1.69854236 1.700646   1.70274996 1.70485423 1.70695882
 1.70906374 1.71116898 1.71327454 1.71538042 1.71748663 1.71959317
 1.72170004 1.72380724 1.72591477 1.72802264 1.73013084 1.73223937
 1.73434824 1.73645745 1.738567   1.74067688 1.74278711 1.74489769
 1.74700861 1.74911987 1.75123148 1.75334344 1.75545575 1.75756841
 1.75968142 1.76179479 1.76390851 1.76602259 1.76813702 1.77025182
 1.77236697 1.77448249 1.77659837 1.77871461 1.78083122 1.78294819
 1.78506553 1.78718325 1.78930133 1.79141978 1.79353861 1.79565781
 1.79777739 1.79989734 1.80201768 1.80413839 1.80625948 1.80838096
 1.81050282 1.81262506 1.81474769 1.81687071 1.81899411 1.82111791
 1.8232421  1.82536668 1.82749165 1.82961702 1.83174278 1.83386895
 1.83599551 1.83812247 1.84024984 1.8423776  1.84450577 1.84663435
 1.84876333 1.85089272 1.85302253 1.85515274 1.85728336 1.8594144
 1.86154585 1.86367772 1.86581    1.8679427  1.87007582 1.87220937
 1.87434333 1.87647772 1.87861254 1.88074778 1.88288344 1.88501954
 1.88715607 1.88929302 1.89143041 1.89356824 1.8957065  1.89784519
 1.89998433 1.9021239  1.90426391 1.90640437 1.90854526 1.9106866
 1.91282839 1.91497063 1.91711331 1.91925644 1.92140002 1.92354405
 1.92568854 1.92783348 1.92997888 1.93212473 1.93427104 1.93641782
 1.93856505 1.94071274 1.9428609  1.94500952 1.94715861 1.94930817
 1.95145819 1.95360869 1.95575965 1.95791109 1.960063   1.96221539
 1.96436825 1.9665216  1.96867541 1.97082971 1.9729845  1.97513976
 1.97729551 1.97945174 1.98160846 1.98376567 1.98592336 1.98808155
 1.99024023 1.9923994  1.99455906 1.99671922 1.99887988 2.00104103
 2.00320269 2.00536484 2.0075275  2.00969066 2.01185432 2.01401849
 2.01618317 2.01834836 2.02051405 2.02268025 2.02484697 2.0270142
 2.02918195 2.03135021 2.03351898 2.03568828 2.0378581  2.04002843
 2.04219929 2.04437067 2.04654258 2.04871501 2.05088797 2.05306146
 2.05523548 2.05741003 2.05958511 2.06176073 2.06393688 2.06611357
 2.06829079 2.07046855 2.07264686 2.0748257  2.07700509 2.07918502
 2.08136549 2.08354651 2.08572808 2.0879102  2.09009287 2.09227608
 2.09445986 2.09664418 2.09882906 2.1010145  2.10320049 2.10538705
 2.10757416 2.10976184 2.11195007 2.11413888 2.11632824 2.11851818
 2.12070868 2.12289975 2.12509139 2.1272836  2.12947639 2.13166974
 2.13386368 2.13605819 2.13825328 2.14044895 2.14264519 2.14484202
 2.14703944 2.14923743 2.15143601 2.15363518 2.15583494 2.15803528
 2.16023622 2.16243775 2.16463987 2.16684258 2.16904589 2.1712498
 2.17345431 2.17565941 2.17786511 2.18007142 2.18227833 2.18448584
 2.18669396 2.18890269 2.19111202 2.19332196 2.19553251 2.19774368
 2.19995546 2.20216785 2.20438085 2.20659448 2.20880872 2.21102358
 2.21323906 2.21545516 2.21767189 2.21988924 2.22210722 2.22432582
 2.22654505 2.22876491 2.2309854  2.23320652 2.23542827 2.23765066
 2.23987369 2.24209735 2.24432164 2.24654658 2.24877216 2.25099838
 2.25322524 2.25545275 2.2576809  2.2599097  2.26213914 2.26436924
 2.26659998 2.26883138 2.27106343 2.27329613 2.27552949 2.27776351
 2.27999818 2.28223352 2.28446951 2.28670616 2.28894348 2.29118146
 2.2934201  2.29565942 2.2978994  2.30014005 2.30238136 2.30462335
 2.30686602 2.30910935 2.31135337 2.31359805 2.31584342 2.31808946
 2.32033619 2.32258359 2.32483168 2.32708045]
t = [1.06996025e+09 1.06996029e+09 1.06996033e+09 1.06996037e+09
 1.06996041e+09 1.06996045e+09 1.06996049e+09 1.06996053e+09
 1.06996057e+09 1.06996061e+09 1.06996065e+09 1.06996069e+09
 1.06996073e+09 1.06996078e+09 1.06996082e+09 1.06996086e+09
 1.06996090e+09 1.06996094e+09 1.06996098e+09 1.06996102e+09
 1.06996106e+09 1.06996110e+09 1.06996114e+09 1.06996118e+09
 1.06996122e+09 1.06996126e+09 1.06996130e+09 1.06996134e+09
 1.06996138e+09 1.06996142e+09 1.06996146e+09 1.06996150e+09
 1.06996154e+09 1.06996158e+09 1.06996162e+09 1.06996166e+09
 1.06996170e+09 1.06996174e+09 1.06996179e+09 1.06996183e+09
 1.06996187e+09 1.06996191e+09 1.06996195e+09 1.06996199e+09
 1.06996203e+09 1.06996207e+09 1.06996211e+09 1.06996215e+09
 1.06996219e+09 1.06996223e+09 1.06996227e+09 1.06996231e+09
 1.06996235e+09 1.06996239e+09 1.06996243e+09 1.06996247e+09
 1.06996251e+09 1.06996255e+09 1.06996259e+09 1.06996263e+09
 1.06996267e+09 1.06996271e+09 1.06996275e+09 1.06996279e+09
 1.06996284e+09 1.06996288e+09 1.06996292e+09 1.06996296e+09
 1.06996300e+09 1.06996304e+09 1.06996308e+09 1.06996312e+09
 1.06996316e+09 1.06996320e+09 1.06996324e+09 1.06996328e+09
 1.06996332e+09 1.06996336e+09 1.06996340e+09 1.06996344e+09
 1.06996348e+09 1.06996352e+09 1.06996356e+09 1.06996360e+09
 1.06996364e+09 1.06996368e+09 1.06996372e+09 1.06996376e+09
 1.06996380e+09 1.06996384e+09 1.06996389e+09 1.06996393e+09
 1.06996397e+09 1.06996401e+09 1.06996405e+09 1.06996409e+09
 1.06996413e+09 1.06996417e+09 1.06996421e+09 1.06996425e+09
 1.06996429e+09 1.06996433e+09 1.06996437e+09 1.06996441e+09
 1.06996445e+09 1.06996449e+09 1.06996453e+09 1.06996457e+09
 1.06996461e+09 1.06996465e+09 1.06996469e+09 1.06996473e+09
 1.06996477e+09 1.06996481e+09 1.06996485e+09 1.06996490e+09
 1.06996494e+09 1.06996498e+09 1.06996502e+09 1.06996506e+09
 1.06996510e+09 1.06996514e+09 1.06996518e+09 1.06996522e+09
 1.06996526e+09 1.06996530e+09 1.06996534e+09 1.06996538e+09
 1.06996542e+09 1.06996546e+09 1.06996550e+09 1.06996554e+09
 1.06996558e+09 1.06996562e+09 1.06996566e+09 1.06996570e+09
 1.06996574e+09 1.06996578e+09 1.06996582e+09 1.06996586e+09
 1.06996590e+09 1.06996595e+09 1.06996599e+09 1.06996603e+09
 1.06996607e+09 1.06996611e+09 1.06996615e+09 1.06996619e+09
 1.06996623e+09 1.06996627e+09 1.06996631e+09 1.06996635e+09
 1.06996639e+09 1.06996643e+09 1.06996647e+09 1.06996651e+09
 1.06996655e+09 1.06996659e+09 1.06996663e+09 1.06996667e+09
 1.06996671e+09 1.06996675e+09 1.06996679e+09 1.06996683e+09
 1.06996687e+09 1.06996691e+09 1.06996695e+09 1.06996700e+09
 1.06996704e+09 1.06996708e+09 1.06996712e+09 1.06996716e+09
 1.06996720e+09 1.06996724e+09 1.06996728e+09 1.06996732e+09
 1.06996736e+09 1.06996740e+09 1.06996744e+09 1.06996748e+09
 1.06996752e+09 1.06996756e+09 1.06996760e+09 1.06996764e+09
 1.06996768e+09 1.06996772e+09 1.06996776e+09 1.06996780e+09
 1.06996784e+09 1.06996788e+09 1.06996792e+09 1.06996796e+09
 1.06996801e+09 1.06996805e+09 1.06996809e+09 1.06996813e+09
 1.06996817e+09 1.06996821e+09 1.06996825e+09 1.06996829e+09
 1.06996833e+09 1.06996837e+09 1.06996841e+09 1.06996845e+09
 1.06996849e+09 1.06996853e+09 1.06996857e+09 1.06996861e+09
 1.06996865e+09 1.06996869e+09 1.06996873e+09 1.06996877e+09
 1.06996881e+09 1.06996885e+09 1.06996889e+09 1.06996893e+09
 1.06996897e+09 1.06996901e+09 1.06996906e+09 1.06996910e+09
 1.06996914e+09 1.06996918e+09 1.06996922e+09 1.06996926e+09
 1.06996930e+09 1.06996934e+09 1.06996938e+09 1.06996942e+09
 1.06996946e+09 1.06996950e+09 1.06996954e+09 1.06996958e+09
 1.06996962e+09 1.06996966e+09 1.06996970e+09 1.06996974e+09
 1.06996978e+09 1.06996982e+09 1.06996986e+09 1.06996990e+09
 1.06996994e+09 1.06996998e+09 1.06997002e+09 1.06997007e+09
 1.06997011e+09 1.06997015e+09 1.06997019e+09 1.06997023e+09
 1.06997027e+09 1.06997031e+09 1.06997035e+09 1.06997039e+09
 1.06997043e+09 1.06997047e+09 1.06997051e+09 1.06997055e+09
 1.06997059e+09 1.06997063e+09 1.06997067e+09 1.06997071e+09
 1.06997075e+09 1.06997079e+09 1.06997083e+09 1.06997087e+09
 1.06997091e+09 1.06997095e+09 1.06997099e+09 1.06997103e+09
 1.06997107e+09 1.06997112e+09 1.06997116e+09 1.06997120e+09
 1.06997124e+09 1.06997128e+09 1.06997132e+09 1.06997136e+09
 1.06997140e+09 1.06997144e+09 1.06997148e+09 1.06997152e+09
 1.06997156e+09 1.06997160e+09 1.06997164e+09 1.06997168e+09
 1.06997172e+09 1.06997176e+09 1.06997180e+09 1.06997184e+09
 1.06997188e+09 1.06997192e+09 1.06997196e+09 1.06997200e+09
 1.06997204e+09 1.06997208e+09 1.06997212e+09 1.06997217e+09
 1.06997221e+09 1.06997225e+09 1.06997229e+09 1.06997233e+09
 1.06997237e+09 1.06997241e+09 1.06997245e+09 1.06997249e+09
 1.06997253e+09 1.06997257e+09 1.06997261e+09 1.06997265e+09
 1.06997269e+09 1.06997273e+09 1.06997277e+09 1.06997281e+09
 1.06997285e+09 1.06997289e+09 1.06997293e+09 1.06997297e+09
 1.06997301e+09 1.06997305e+09 1.06997309e+09 1.06997313e+09
 1.06997318e+09 1.06997322e+09 1.06997326e+09 1.06997330e+09
 1.06997334e+09 1.06997338e+09 1.06997342e+09 1.06997346e+09
 1.06997350e+09 1.06997354e+09 1.06997358e+09 1.06997362e+09
 1.06997366e+09 1.06997370e+09 1.06997374e+09 1.06997378e+09
 1.06997382e+09 1.06997386e+09 1.06997390e+09 1.06997394e+09
 1.06997398e+09 1.06997402e+09 1.06997406e+09 1.06997410e+09
 1.06997414e+09 1.06997418e+09 1.06997423e+09 1.06997427e+09
 1.06997431e+09 1.06997435e+09 1.06997439e+09 1.06997443e+09
 1.06997447e+09 1.06997451e+09 1.06997455e+09 1.06997459e+09
 1.06997463e+09 1.06997467e+09 1.06997471e+09 1.06997475e+09
 1.06997479e+09 1.06997483e+09 1.06997487e+09 1.06997491e+09
 1.06997495e+09 1.06997499e+09 1.06997503e+09 1.06997507e+09
 1.06997511e+09 1.06997515e+09 1.06997519e+09 1.06997524e+09
 1.06997528e+09 1.06997532e+09 1.06997536e+09 1.06997540e+09
 1.06997544e+09 1.06997548e+09 1.06997552e+09 1.06997556e+09
 1.06997560e+09 1.06997564e+09 1.06997568e+09 1.06997572e+09
 1.06997576e+09 1.06997580e+09 1.06997584e+09 1.06997588e+09
 1.06997592e+09 1.06997596e+09 1.06997600e+09 1.06997604e+09
 1.06997608e+09 1.06997612e+09 1.06997616e+09 1.06997620e+09
 1.06997624e+09 1.06997629e+09 1.06997633e+09 1.06997637e+09
 1.06997641e+09 1.06997645e+09 1.06997649e+09 1.06997653e+09
 1.06997657e+09 1.06997661e+09 1.06997665e+09 1.06997669e+09
 1.06997673e+09 1.06997677e+09 1.06997681e+09 1.06997685e+09
 1.06997689e+09 1.06997693e+09 1.06997697e+09 1.06997701e+09
 1.06997705e+09 1.06997709e+09 1.06997713e+09 1.06997717e+09
 1.06997721e+09 1.06997725e+09 1.06997729e+09 1.06997734e+09
 1.06997738e+09 1.06997742e+09 1.06997746e+09 1.06997750e+09
 1.06997754e+09 1.06997758e+09 1.06997762e+09 1.06997766e+09
 1.06997770e+09 1.06997774e+09 1.06997778e+09 1.06997782e+09
 1.06997786e+09 1.06997790e+09 1.06997794e+09 1.06997798e+09
 1.06997802e+09 1.06997806e+09 1.06997810e+09 1.06997814e+09
 1.06997818e+09 1.06997822e+09 1.06997826e+09 1.06997830e+09
 1.06997835e+09 1.06997839e+09 1.06997843e+09 1.06997847e+09
 1.06997851e+09 1.06997855e+09 1.06997859e+09 1.06997863e+09
 1.06997867e+09 1.06997871e+09 1.06997875e+09 1.06997879e+09
 1.06997883e+09 1.06997887e+09 1.06997891e+09 1.06997895e+09
 1.06997899e+09 1.06997903e+09 1.06997907e+09 1.06997911e+09
 1.06997915e+09 1.06997919e+09 1.06997923e+09 1.06997927e+09
 1.06997931e+09 1.06997935e+09 1.06997940e+09 1.06997944e+09
 1.06997948e+09 1.06997952e+09 1.06997956e+09 1.06997960e+09
 1.06997964e+09 1.06997968e+09 1.06997972e+09 1.06997976e+09
 1.06997980e+09 1.06997984e+09 1.06997988e+09 1.06997992e+09
 1.06997996e+09 1.06998000e+09 1.06998004e+09 1.06998008e+09
 1.06998012e+09 1.06998016e+09 1.06998020e+09 1.06998024e+09
 1.06998028e+09 1.06998032e+09 1.06998036e+09 1.06998040e+09
 1.06998045e+09 1.06998049e+09 1.06998053e+09 1.06998057e+09
 1.06998061e+09 1.06998065e+09 1.06998069e+09 1.06998073e+09
 1.06998077e+09 1.06998081e+09 1.06998085e+09 1.06998089e+09
 1.06998093e+09 1.06998097e+09 1.06998101e+09 1.06998105e+09
 1.06998109e+09 1.06998113e+09 1.06998117e+09 1.06998121e+09
 1.06998125e+09 1.06998129e+09 1.06998133e+09 1.06998137e+09
 1.06998141e+09 1.06998146e+09 1.06998150e+09 1.06998154e+09
 1.06998158e+09 1.06998162e+09 1.06998166e+09 1.06998170e+09
 1.06998174e+09 1.06998178e+09 1.06998182e+09 1.06998186e+09
 1.06998190e+09 1.06998194e+09 1.06998198e+09 1.06998202e+09
 1.06998206e+09 1.06998210e+09 1.06998214e+09 1.06998218e+09
 1.06998222e+09 1.06998226e+09 1.06998230e+09 1.06998234e+09
 1.06998238e+09 1.06998242e+09 1.06998246e+09 1.06998251e+09
 1.06998255e+09 1.06998259e+09 1.06998263e+09 1.06998267e+09
 1.06998271e+09 1.06998275e+09 1.06998279e+09 1.06998283e+09
 1.06998287e+09 1.06998291e+09 1.06998295e+09 1.06998299e+09
