name =JUICE_ROI_GAN_4_2_02
flyby = ['2034 SEP 07 06:03:51', '2034 SEP 08 06:03:51']
Observation TW = <SpiceCell dtype = 1, length = 0, size = 3200, card = 12, is_set = 1, adjust = 0, init = 1, base = 94033475273552, data = 94033475273600>
Res(t) = [1.95379775 1.95092401 1.94805285 1.9451843  1.94231836 1.93945505
 1.93659438 1.93373636 1.93088101 1.92802834 1.92517835 1.92233107
 1.91948651 1.91664468 1.91380559 1.91096926 1.9081357  1.90530491
 1.90247693 1.89965175 1.89682939 1.89400987 1.8911932  1.88837938
 1.88556845 1.8827604  1.87995525 1.87715301 1.8743537  1.87155734
 1.86876392 1.86597348 1.86318602 1.86040155 1.85762009 1.85484165
 1.85206625 1.8492939  1.84652461 1.84375839 1.84099527 1.83823525
 1.83547835 1.83272458 1.82997395 1.82722648 1.82448218 1.82174107
 1.81900316 1.81626847 1.81353699 1.81080877 1.80808379 1.80536209
 1.80264367 1.79992854 1.79721672 1.79450823 1.79180308 1.78910128
 1.78640285 1.7837078  1.78101614 1.77832789 1.77564306 1.77296166
 1.77028372 1.76760924 1.76493824 1.76227074 1.75960674 1.75694625
 1.75428931 1.75163591 1.74898607 1.74633981 1.74369714 1.74105808
 1.73842263 1.73579082 1.73316265 1.73053815 1.72791732 1.72530017
 1.72268674 1.72007701 1.71747102 1.71486878 1.71227029 1.70967558
 1.70708465 1.70449753 1.70191422 1.69933474 1.6967591  1.69418732
 1.69161942 1.68905539 1.68649527 1.68393906 1.68138678 1.67883844
 1.67629405 1.67375364 1.67121721 1.66868477 1.66615634 1.66363194
 1.66111158 1.65859527 1.65608303 1.65357487 1.6510708  1.64857084
 1.646075   1.6435833  1.64109574 1.63861235 1.63613314 1.63365811
 1.63118729 1.62872069 1.62625831 1.62380019 1.62134632 1.61889672
 1.61645141 1.61401039 1.61157369 1.60914132 1.60671328 1.6042896
 1.60187028 1.59945535 1.5970448  1.59463866 1.59223695 1.58983966
 1.58744682 1.58505844 1.58267453 1.5802951  1.57792018 1.57554976
 1.57318387 1.57082252 1.56846572 1.56611348 1.56376581 1.56142274
 1.55908427 1.55675041 1.55442118 1.55209659 1.54977665 1.54746137
 1.54515078 1.54284487 1.54054367 1.53824718 1.53595542 1.53366841
 1.53138614 1.52910864 1.52683591 1.52456798 1.52230484 1.52004652
 1.51779303 1.51554437 1.51330056 1.51106161 1.50882754 1.50659835
 1.50437406 1.50215468 1.49994022 1.49773069 1.4955261  1.49332647
 1.4911318  1.48894212 1.48675742 1.48457772 1.48240304 1.48023338
 1.47806875 1.47590917 1.47375465 1.4716052  1.46946082 1.46732153
 1.46518734 1.46305827 1.46093431 1.45881549 1.45670182 1.45459329
 1.45248993 1.45039175 1.44829875 1.44621094 1.44412834 1.44205096
 1.4399788  1.43791188 1.43585021 1.43379379 1.43174264 1.42969676
 1.42765617 1.42562088 1.42359088 1.42156621 1.41954685 1.41753284
 1.41552416 1.41352083 1.41152287 1.40953028 1.40754307 1.40556124
 1.40358481 1.40161379 1.39964819 1.39768801 1.39573326 1.39378395
 1.39184009 1.3899017  1.38796876 1.38604131 1.38411933 1.38220285
 1.38029187 1.3783864  1.37648644 1.374592   1.3727031  1.37081974
 1.36894192 1.36706966 1.36520296 1.36334183 1.36148628 1.35963631
 1.35779194 1.35595316 1.35411999 1.35229243 1.35047049 1.34865418
 1.3468435  1.34503846 1.34323907 1.34144533 1.33965725 1.33787484
 1.33609811 1.33432705 1.33256167 1.33080199 1.329048   1.32729972
 1.32555715 1.32382029 1.32208915 1.32036374 1.31864406 1.31693011
 1.31522191 1.31351946 1.31182276 1.31013182 1.30844664 1.30676723
 1.30509359 1.30342573 1.30176365 1.30010737 1.29845687 1.29681217
 1.29517327 1.29354017 1.29191288 1.29029141 1.28867575 1.28706592
 1.28546191 1.28386373 1.28227139 1.28068488 1.27910421 1.27752938
 1.2759604  1.27439728 1.27284    1.27128858 1.26974303 1.26820333
 1.2666695  1.26514155 1.26361946 1.26210324 1.26059291 1.25908845
 1.25758987 1.25609718 1.25461037 1.25312946 1.25165443 1.2501853
 1.24872206 1.24726471 1.24581327 1.24436772 1.24292808 1.24149434
 1.2400665  1.23864457 1.23722854 1.23581843 1.23441422 1.23301592
 1.23162353 1.23023706 1.2288565  1.22748185 1.22611311 1.22475029
 1.22339339 1.2220424  1.22069732 1.21935816 1.21802492 1.21669759
 1.21537618 1.21406068 1.2127511  1.21144744 1.21014968 1.20885785
 1.20757192 1.20629191 1.20501781 1.20374962 1.20248735 1.20123098
 1.19998052 1.19873597 1.19749732 1.19626458 1.19503775 1.19381681
 1.19260178 1.19139264 1.1901894  1.18899206 1.18780061 1.18661505
 1.18543539 1.18426161 1.18309371 1.1819317  1.18077557 1.17962532
 1.17848095 1.17734245 1.17620981 1.17508305 1.17396216 1.17284712
 1.17173795 1.17063463 1.16953717 1.16844555 1.16735979 1.16627987
 1.16520579 1.16413754 1.16307513 1.16201855 1.1609678  1.15992287
 1.15888376 1.15785046 1.15682297 1.15580129 1.15478542 1.15377534
 1.15277105 1.15177256 1.15077985 1.14979293 1.14881178 1.1478364
 1.14686679 1.14590294 1.14494485 1.14399251 1.14304592 1.14210508
 1.14116997 1.14024059 1.13931694 1.13839902 1.13748681 1.13658031
 1.13567952 1.13478442 1.13389503 1.13301132 1.13213329 1.13126094
 1.13039427 1.12953326 1.12867791 1.12782821 1.12698416 1.12614575
 1.12531297 1.12448583 1.1236643  1.12284839 1.12203809 1.1212334
 1.12043429 1.11964078 1.11885285 1.1180705  1.11729371 1.11652249
 1.11575682 1.1149967  1.11424212 1.11349307 1.11274955 1.11201155
 1.11127906 1.11055208 1.10983059 1.10911459 1.10840407 1.10769903
 1.10699945 1.10630534 1.10561667 1.10493344 1.10425566 1.10358329
 1.10291635 1.10225482 1.1015987  1.10094796 1.10030262 1.09966265
 1.09902806 1.09839882 1.09777494 1.09715641 1.09654321 1.09593534
 1.09533279 1.09473555 1.09414361 1.09355697 1.09297561 1.09239953
 1.09182872 1.09126316 1.09070286 1.09014779 1.08959796 1.08905334
 1.08851395 1.08797975 1.08745075 1.08692694 1.0864083  1.08589483
 1.08538652 1.08488335 1.08438533 1.08389243 1.08340466 1.08292199
 1.08244443 1.08197196 1.08150457 1.08104225 1.08058499 1.08013279
 1.07968563 1.0792435  1.07880639 1.0783743  1.07794721 1.07752511
 1.077108   1.07669586 1.07628868 1.07588645 1.07548917 1.07509682
 1.0747094  1.07432688 1.07394927 1.07357655 1.07320871 1.07284574
 1.07248763 1.07213437 1.07178596 1.07144237 1.0711036  1.07076964
 1.07044048 1.0701161  1.0697965  1.06948167 1.06917159 1.06886626
 1.06856566 1.06826979 1.06797863 1.06769217 1.0674104  1.06713331
 1.06686089 1.06659314 1.06633003 1.06607155 1.06581771 1.06556847
 1.06532385 1.06508381 1.06484836 1.06461748 1.06439116 1.0641694
 1.06395217 1.06373946 1.06353128 1.0633276  1.06312841 1.06293371
 1.06274348 1.06255771 1.06237639 1.06219951 1.06202705 1.06185902
 1.06169538 1.06153614 1.06138129 1.06123081 1.06108468 1.06094291
 1.06080547 1.06067236 1.06054357 1.06041907 1.06029888 1.06018296
 1.06007131 1.05996392 1.05986078 1.05976188 1.0596672  1.05957673
 1.05949046 1.05940839 1.0593305  1.05925677 1.0591872  1.05912177
 1.05906048 1.05900331 1.05895025 1.05890129 1.05885642 1.05881563
 1.0587789  1.05874623 1.05871759 1.05869299 1.05867241 1.05865584
 1.05864326 1.05863467 1.05863006 1.0586294  1.0586327  1.05863994
 1.05865111 1.05866619 1.05868518 1.05870806 1.05873483 1.05876547
 1.05879997 1.05883831 1.0588805  1.05892651 1.05897633 1.05902996
 1.05908738 1.05914858 1.05921355 1.05928228 1.05935476 1.05943097
 1.0595109  1.05959455 1.0596819  1.05977293 1.05986765 1.05996603
 1.06006807 1.06017376 1.06028307 1.06039601 1.06051257 1.06063272
 1.06075646 1.06088377 1.06101466 1.06114909 1.06128708 1.06142859
 1.06157363 1.06172217 1.06187422 1.06202975 1.06218876 1.06235124
 1.06251717 1.06268654 1.06285935 1.06303558 1.06321522 1.06339825
 1.06358468 1.06377448 1.06396765 1.06416418 1.06436405 1.06456725
 1.06477378 1.06498362 1.06519675 1.06541318 1.06563289 1.06585586
 1.0660821  1.06631158 1.06654429 1.06678023 1.06701939 1.06726174
 1.06750729 1.06775602 1.06800793 1.06826299 1.0685212  1.06878256
 1.06904704 1.06931464 1.06958534 1.06985915 1.07013604 1.070416
 1.07069903 1.07098512 1.07127425 1.07156641 1.0718616  1.0721598
 1.072461   1.07276519 1.07307237 1.07338252 1.07369562 1.07401168
 1.07433068 1.07465261 1.07497746 1.07530522 1.07563588 1.07596943
 1.07630586 1.07664516 1.07698731 1.07733232 1.07768016 1.07803084
 1.07838433 1.07874063 1.07909973 1.07946162 1.07982629 1.08019373
 1.08056392 1.08093687 1.08131255 1.08169097 1.08207211 1.08245595
 1.0828425  1.08323173 1.08362365 1.08401824 1.08441549 1.0848154
 1.08521794 1.08562312 1.08603093 1.08644134 1.08685436 1.08726998
 1.08768818 1.08810896 1.08853231 1.08895821 1.08938666 1.08981765
 1.09025117 1.09068721 1.09112576 1.09156681 1.09201035 1.09245638
 1.09290488 1.09335585 1.09380927 1.09426514 1.09472345 1.09518419
 1.09564735 1.09611292 1.09658089 1.09705125 1.097524   1.09799912
 1.09847662 1.09895646 1.09943866 1.0999232  1.10041007 1.10089926
 1.10139077 1.10188458 1.10238069 1.10287909 1.10337977 1.10388272
 1.10438794 1.10489541 1.10540512 1.10591707 1.10643125 1.10694766
 1.10746627 1.10798709 1.10851011 1.10903531 1.1095627  1.11009225
 1.11062397 1.11115784 1.11169386 1.11223202 1.11277231 1.11331473
 1.11385926 1.11440589 1.11495463 1.11550545 1.11605836 1.11661335
 1.1171704  1.11772951 1.11829067 1.11885388 1.11941913 1.1199864
 1.1205557  1.12112701 1.12170032 1.12227564 1.12285294 1.12343223
 1.12401349 1.12459673 1.12518192 1.12576907 1.12635816 1.12694919
 1.12754216 1.12813705 1.12873386 1.12933257 1.12993319 1.13053571
 1.13114011 1.1317464  1.13235455 1.13296458 1.13357647 1.13419021
 1.13480579 1.13542322 1.13604248 1.13666356 1.13728646 1.13791118
 1.1385377  1.13916602 1.13979613 1.14042802 1.14106169 1.14169714
 1.14233435 1.14297331 1.14361403 1.1442565  1.1449007  1.14554664
 1.1461943  1.14684368 1.14749478 1.14814758 1.14880208 1.14945828
 1.15011616 1.15077572 1.15143696 1.15209987 1.15276445 1.15343068
 1.15409856 1.15476808 1.15543925 1.15611204 1.15678647 1.15746251
 1.15814017 1.15881944 1.15950031 1.16018278 1.16086684 1.16155248
 1.16223971 1.16292851 1.16361887 1.1643108  1.16500429 1.16569933
 1.16639591 1.16709404 1.1677937  1.16849489 1.1691976  1.16990183
 1.17060758 1.17131483 1.17202358 1.17273383 1.17344557 1.1741588
 1.17487351 1.1755897  1.17630735 1.17702648 1.17774706 1.1784691
 1.17919258 1.17991752 1.18064389 1.1813717  1.18210093 1.1828316
 1.18356368 1.18429718 1.18503209 1.1857684  1.18650612 1.18724523
 1.18798573 1.18872762 1.1894709  1.19021554 1.19096157 1.19170896
 1.19245771 1.19320782 1.19395929 1.19471211 1.19546627 1.19622177
 1.19697861 1.19773678 1.19849628 1.19925711 1.20001925 1.20078271
 1.20154748 1.20231355 1.20308093 1.20384961 1.20461957 1.20539083
 1.20616338 1.20693721 1.20771231 1.20848869 1.20926634 1.21004525
 1.21082543 1.21160686 1.21238955 1.21317349 1.21395867 1.2147451
 1.21553277 1.21632167 1.2171118  1.21790316 1.21869575 1.21948955
 1.22028457 1.22108081 1.22187825 1.22267691 1.22347676 1.22427782
 1.22508007 1.22588351 1.22668814 1.22749396 1.22830096 1.22910914
 1.22991849 1.23072902 1.23154071 1.23235358 1.2331676  1.23398279
 1.23479913 1.23561663 1.23643527 1.23725507 1.23807601 1.23889809
 1.2397213  1.24054566 1.24137115 1.24219776 1.24302551 1.24385437
 1.24468436 1.24551547 1.24634769 1.24718103 1.24801548 1.24885103
 1.24968769 1.25052545 1.25136432 1.25220427 1.25304533 1.25388747
 1.25473071 1.25557503 1.25642044 1.25726693 1.2581145  1.25896315
 1.25981287 1.26066366 1.26151553 1.26236847 1.26322247 1.26407753
 1.26493366 1.26579084 1.26664908 1.26750838 1.26836873 1.26923013
 1.27009259 1.27095608 1.27182063 1.27268621 1.27355284 1.27442051
 1.27528921 1.27615895 1.27702972 1.27790153]
t = [1.09449390e+09 1.09449399e+09 1.09449407e+09 1.09449416e+09
 1.09449425e+09 1.09449433e+09 1.09449442e+09 1.09449451e+09
 1.09449459e+09 1.09449468e+09 1.09449477e+09 1.09449485e+09
 1.09449494e+09 1.09449502e+09 1.09449511e+09 1.09449520e+09
 1.09449528e+09 1.09449537e+09 1.09449546e+09 1.09449554e+09
 1.09449563e+09 1.09449572e+09 1.09449580e+09 1.09449589e+09
 1.09449598e+09 1.09449606e+09 1.09449615e+09 1.09449624e+09
 1.09449632e+09 1.09449641e+09 1.09449649e+09 1.09449658e+09
 1.09449667e+09 1.09449675e+09 1.09449684e+09 1.09449693e+09
 1.09449701e+09 1.09449710e+09 1.09449719e+09 1.09449727e+09
 1.09449736e+09 1.09449745e+09 1.09449753e+09 1.09449762e+09
 1.09449771e+09 1.09449779e+09 1.09449788e+09 1.09449797e+09
 1.09449805e+09 1.09449814e+09 1.09449822e+09 1.09449831e+09
 1.09449840e+09 1.09449848e+09 1.09449857e+09 1.09449866e+09
 1.09449874e+09 1.09449883e+09 1.09449892e+09 1.09449900e+09
 1.09449909e+09 1.09449918e+09 1.09449926e+09 1.09449935e+09
 1.09449944e+09 1.09449952e+09 1.09449961e+09 1.09449969e+09
 1.09449978e+09 1.09449987e+09 1.09449995e+09 1.09450004e+09
 1.09450013e+09 1.09450021e+09 1.09450030e+09 1.09450039e+09
 1.09450047e+09 1.09450056e+09 1.09450065e+09 1.09450073e+09
 1.09450082e+09 1.09450091e+09 1.09450099e+09 1.09450108e+09
 1.09450117e+09 1.09450125e+09 1.09450134e+09 1.09450142e+09
 1.09450151e+09 1.09450160e+09 1.09450168e+09 1.09450177e+09
 1.09450186e+09 1.09450194e+09 1.09450203e+09 1.09450212e+09
 1.09450220e+09 1.09450229e+09 1.09450238e+09 1.09450246e+09
 1.09450255e+09 1.09450264e+09 1.09450272e+09 1.09450281e+09
 1.09450289e+09 1.09450298e+09 1.09450307e+09 1.09450315e+09
 1.09450324e+09 1.09450333e+09 1.09450341e+09 1.09450350e+09
 1.09450359e+09 1.09450367e+09 1.09450376e+09 1.09450385e+09
 1.09450393e+09 1.09450402e+09 1.09450411e+09 1.09450419e+09
 1.09450428e+09 1.09450437e+09 1.09450445e+09 1.09450454e+09
 1.09450462e+09 1.09450471e+09 1.09450480e+09 1.09450488e+09
 1.09450497e+09 1.09450506e+09 1.09450514e+09 1.09450523e+09
 1.09450532e+09 1.09450540e+09 1.09450549e+09 1.09450558e+09
 1.09450566e+09 1.09450575e+09 1.09450584e+09 1.09450592e+09
 1.09450601e+09 1.09450609e+09 1.09450618e+09 1.09450627e+09
 1.09450635e+09 1.09450644e+09 1.09450653e+09 1.09450661e+09
 1.09450670e+09 1.09450679e+09 1.09450687e+09 1.09450696e+09
 1.09450705e+09 1.09450713e+09 1.09450722e+09 1.09450731e+09
 1.09450739e+09 1.09450748e+09 1.09450757e+09 1.09450765e+09
 1.09450774e+09 1.09450782e+09 1.09450791e+09 1.09450800e+09
 1.09450808e+09 1.09450817e+09 1.09450826e+09 1.09450834e+09
 1.09450843e+09 1.09450852e+09 1.09450860e+09 1.09450869e+09
 1.09450878e+09 1.09450886e+09 1.09450895e+09 1.09450904e+09
 1.09450912e+09 1.09450921e+09 1.09450929e+09 1.09450938e+09
 1.09450947e+09 1.09450955e+09 1.09450964e+09 1.09450973e+09
 1.09450981e+09 1.09450990e+09 1.09450999e+09 1.09451007e+09
 1.09451016e+09 1.09451025e+09 1.09451033e+09 1.09451042e+09
 1.09451051e+09 1.09451059e+09 1.09451068e+09 1.09451077e+09
 1.09451085e+09 1.09451094e+09 1.09451102e+09 1.09451111e+09
 1.09451120e+09 1.09451128e+09 1.09451137e+09 1.09451146e+09
 1.09451154e+09 1.09451163e+09 1.09451172e+09 1.09451180e+09
 1.09451189e+09 1.09451198e+09 1.09451206e+09 1.09451215e+09
 1.09451224e+09 1.09451232e+09 1.09451241e+09 1.09451249e+09
 1.09451258e+09 1.09451267e+09 1.09451275e+09 1.09451284e+09
 1.09451293e+09 1.09451301e+09 1.09451310e+09 1.09451319e+09
 1.09451327e+09 1.09451336e+09 1.09451345e+09 1.09451353e+09
 1.09451362e+09 1.09451371e+09 1.09451379e+09 1.09451388e+09
 1.09451397e+09 1.09451405e+09 1.09451414e+09 1.09451422e+09
 1.09451431e+09 1.09451440e+09 1.09451448e+09 1.09451457e+09
 1.09451466e+09 1.09451474e+09 1.09451483e+09 1.09451492e+09
 1.09451500e+09 1.09451509e+09 1.09451518e+09 1.09451526e+09
 1.09451535e+09 1.09451544e+09 1.09451552e+09 1.09451561e+09
 1.09451569e+09 1.09451578e+09 1.09451587e+09 1.09451595e+09
 1.09451604e+09 1.09451613e+09 1.09451621e+09 1.09451630e+09
 1.09451639e+09 1.09451647e+09 1.09451656e+09 1.09451665e+09
 1.09451673e+09 1.09451682e+09 1.09451691e+09 1.09451699e+09
 1.09451708e+09 1.09451717e+09 1.09451725e+09 1.09451734e+09
 1.09451742e+09 1.09451751e+09 1.09451760e+09 1.09451768e+09
 1.09451777e+09 1.09451786e+09 1.09451794e+09 1.09451803e+09
 1.09451812e+09 1.09451820e+09 1.09451829e+09 1.09451838e+09
 1.09451846e+09 1.09451855e+09 1.09451864e+09 1.09451872e+09
 1.09451881e+09 1.09451889e+09 1.09451898e+09 1.09451907e+09
 1.09451915e+09 1.09451924e+09 1.09451933e+09 1.09451941e+09
 1.09451950e+09 1.09451959e+09 1.09451967e+09 1.09451976e+09
 1.09451985e+09 1.09451993e+09 1.09452002e+09 1.09452011e+09
 1.09452019e+09 1.09452028e+09 1.09452037e+09 1.09452045e+09
 1.09452054e+09 1.09452062e+09 1.09452071e+09 1.09452080e+09
 1.09452088e+09 1.09452097e+09 1.09452106e+09 1.09452114e+09
 1.09452123e+09 1.09452132e+09 1.09452140e+09 1.09452149e+09
 1.09452158e+09 1.09452166e+09 1.09452175e+09 1.09452184e+09
 1.09452192e+09 1.09452201e+09 1.09452209e+09 1.09452218e+09
 1.09452227e+09 1.09452235e+09 1.09452244e+09 1.09452253e+09
 1.09452261e+09 1.09452270e+09 1.09452279e+09 1.09452287e+09
 1.09452296e+09 1.09452305e+09 1.09452313e+09 1.09452322e+09
 1.09452331e+09 1.09452339e+09 1.09452348e+09 1.09452357e+09
 1.09452365e+09 1.09452374e+09 1.09452382e+09 1.09452391e+09
 1.09452400e+09 1.09452408e+09 1.09452417e+09 1.09452426e+09
 1.09452434e+09 1.09452443e+09 1.09452452e+09 1.09452460e+09
 1.09452469e+09 1.09452478e+09 1.09452486e+09 1.09452495e+09
 1.09452504e+09 1.09452512e+09 1.09452521e+09 1.09452529e+09
 1.09452538e+09 1.09452547e+09 1.09452555e+09 1.09452564e+09
 1.09452573e+09 1.09452581e+09 1.09452590e+09 1.09452599e+09
 1.09452607e+09 1.09452616e+09 1.09452625e+09 1.09452633e+09
 1.09452642e+09 1.09452651e+09 1.09452659e+09 1.09452668e+09
 1.09452677e+09 1.09452685e+09 1.09452694e+09 1.09452702e+09
 1.09452711e+09 1.09452720e+09 1.09452728e+09 1.09452737e+09
 1.09452746e+09 1.09452754e+09 1.09452763e+09 1.09452772e+09
 1.09452780e+09 1.09452789e+09 1.09452798e+09 1.09452806e+09
 1.09452815e+09 1.09452824e+09 1.09452832e+09 1.09452841e+09
 1.09452849e+09 1.09452858e+09 1.09452867e+09 1.09452875e+09
 1.09452884e+09 1.09452893e+09 1.09452901e+09 1.09452910e+09
 1.09452919e+09 1.09452927e+09 1.09452936e+09 1.09452945e+09
 1.09452953e+09 1.09452962e+09 1.09452971e+09 1.09452979e+09
 1.09452988e+09 1.09452997e+09 1.09453005e+09 1.09453014e+09
 1.09453022e+09 1.09453031e+09 1.09453040e+09 1.09453048e+09
 1.09453057e+09 1.09453066e+09 1.09453074e+09 1.09453083e+09
 1.09453092e+09 1.09453100e+09 1.09453109e+09 1.09453118e+09
 1.09453126e+09 1.09453135e+09 1.09453144e+09 1.09453152e+09
 1.09453161e+09 1.09453169e+09 1.09453178e+09 1.09453187e+09
 1.09453195e+09 1.09453204e+09 1.09453213e+09 1.09453221e+09
 1.09453230e+09 1.09453239e+09 1.09453247e+09 1.09453256e+09
 1.09453265e+09 1.09453273e+09 1.09453282e+09 1.09453291e+09
 1.09453299e+09 1.09453308e+09 1.09453317e+09 1.09453325e+09
 1.09453334e+09 1.09453342e+09 1.09453351e+09 1.09453360e+09
 1.09453368e+09 1.09453377e+09 1.09453386e+09 1.09453394e+09
 1.09453403e+09 1.09453412e+09 1.09453420e+09 1.09453429e+09
 1.09453438e+09 1.09453446e+09 1.09453455e+09 1.09453464e+09
 1.09453472e+09 1.09453481e+09 1.09453489e+09 1.09453498e+09
 1.09453507e+09 1.09453515e+09 1.09453524e+09 1.09453533e+09
 1.09453541e+09 1.09453550e+09 1.09453559e+09 1.09453567e+09
 1.09453576e+09 1.09453585e+09 1.09453593e+09 1.09453602e+09
 1.09453611e+09 1.09453619e+09 1.09453628e+09 1.09453637e+09
 1.09453645e+09 1.09453654e+09 1.09453662e+09 1.09453671e+09
 1.09453680e+09 1.09453688e+09 1.09453697e+09 1.09453706e+09
 1.09453714e+09 1.09453723e+09 1.09453732e+09 1.09453740e+09
 1.09453749e+09 1.09453758e+09 1.09453766e+09 1.09453775e+09
 1.09453784e+09 1.09453792e+09 1.09453801e+09 1.09453809e+09
 1.09453818e+09 1.09453827e+09 1.09453835e+09 1.09453844e+09
 1.09453853e+09 1.09453861e+09 1.09453870e+09 1.09453879e+09
 1.09453887e+09 1.09453896e+09 1.09453905e+09 1.09453913e+09
 1.09453922e+09 1.09453931e+09 1.09453939e+09 1.09453948e+09
 1.09453957e+09 1.09453965e+09 1.09453974e+09 1.09453982e+09
 1.09453991e+09 1.09454000e+09 1.09454008e+09 1.09454017e+09
 1.09454026e+09 1.09454034e+09 1.09454043e+09 1.09454052e+09
 1.09454060e+09 1.09454069e+09 1.09454078e+09 1.09454086e+09
 1.09454095e+09 1.09454104e+09 1.09454112e+09 1.09454121e+09
 1.09454129e+09 1.09454138e+09 1.09454147e+09 1.09454155e+09
 1.09454164e+09 1.09454173e+09 1.09454181e+09 1.09454190e+09
 1.09454199e+09 1.09454207e+09 1.09454216e+09 1.09454225e+09
