name =JUICE_ROI_GAN_3_0_13
flyby = ['2034 SEP 07 06:03:51', '2034 SEP 08 06:03:51']
Observation TW = <SpiceCell dtype = 1, length = 0, size = 3000, card = 10, is_set = 1, adjust = 0, init = 1, base = 94141901134208, data = 94141901134256>
Res(t) = [2.20994827 2.20605696 2.20217517 2.19830288 2.19444011 2.19058686
 2.18674314 2.18290895 2.1790843  2.1752692  2.17146364 2.16766764
 2.16388119 2.16010432 2.15633701 2.15257927 2.14883111 2.14509254
 2.14136355 2.13764414 2.13393433 2.13023411 2.1265435  2.12286248
 2.11919106 2.11552925 2.11187705 2.10823446 2.10460148 2.10097811
 2.09736436 2.09376023 2.09016572 2.08658082 2.08300554 2.07943989
 2.07588385 2.07233744 2.06880065 2.06527348 2.06175593 2.058248
 2.0547497  2.05126101 2.04778194 2.04431249 2.04085266 2.03740245
 2.03396184 2.03053085 2.02710948 2.02369771 2.02029555 2.01690299
 2.01352004 2.01014669 2.00678293 2.00342877 2.0000842  1.99674923
 1.99342383 1.99010802 1.98680179 1.98350513 1.98021805 1.97694053
 1.97367257 1.97041418 1.96716534 1.96392604 1.9606963  1.9574761
 1.95426543 1.95106429 1.94787269 1.94469059 1.94151802 1.93835496
 1.9352014  1.93205734 1.92892277 1.92579769 1.92268209 1.91957597
 1.91647931 1.91339212 1.91031438 1.90724608 1.90418723 1.90113782
 1.89809783 1.89506727 1.89204611 1.88903436 1.88603201 1.88303905
 1.88005548 1.87708128 1.87411644 1.87116097 1.86821485 1.86527807
 1.86235063 1.85943251 1.85652371 1.85362422 1.85073403 1.84785313
 1.84498151 1.84211917 1.83926609 1.83642227 1.8335877  1.83076236
 1.82794625 1.82513935 1.82234167 1.81955318 1.81677388 1.81400377
 1.81124282 1.80849103 1.80574838 1.80301488 1.8002905  1.79757525
 1.79486909 1.79217204 1.78948407 1.78680518 1.78413535 1.78147458
 1.77882285 1.77618015 1.77354647 1.7709218  1.76830613 1.76569945
 1.76310174 1.76051299 1.7579332  1.75536235 1.75280043 1.75024743
 1.74770334 1.74516813 1.74264181 1.74012436 1.73761577 1.73511603
 1.73262512 1.73014303 1.72766975 1.72520527 1.72274957 1.72030265
 1.71786448 1.71543507 1.71301438 1.71060243 1.70819918 1.70580462
 1.70341875 1.70104155 1.69867301 1.69631312 1.69396186 1.69161921
 1.68928517 1.68695973 1.68464286 1.68233456 1.68003481 1.67774361
 1.67546092 1.67318675 1.67092108 1.6686639  1.66641519 1.66417494
 1.66194313 1.65971975 1.65750479 1.65529823 1.65310007 1.65091028
 1.64872885 1.64655577 1.64439102 1.6422346  1.64008648 1.63794665
 1.6358151  1.63369181 1.63157678 1.62946998 1.6273714  1.62528103
 1.62319885 1.62112485 1.61905901 1.61700132 1.61495177 1.61291034
 1.61087702 1.60885178 1.60683463 1.60482554 1.60282449 1.60083148
 1.59884649 1.5968695  1.59490051 1.59293949 1.59098642 1.58904131
 1.58710412 1.58517486 1.58325349 1.58134001 1.5794344  1.57753665
 1.57564674 1.57376465 1.57189038 1.57002391 1.56816522 1.56631429
 1.56447112 1.56263569 1.56080797 1.55898797 1.55717566 1.55537102
 1.55357405 1.55178473 1.55000303 1.54822896 1.54646248 1.5447036
 1.54295228 1.54120852 1.5394723  1.53774361 1.53602243 1.53430875
 1.53260254 1.5309038  1.52921251 1.52752866 1.52585223 1.5241832
 1.52252156 1.52086729 1.51922038 1.51758082 1.51594858 1.51432366
 1.51270604 1.5110957  1.50949262 1.5078968  1.50630821 1.50472685
 1.50315269 1.50158572 1.50002593 1.4984733  1.49692781 1.49538946
 1.49385822 1.49233407 1.49081701 1.48930702 1.48780408 1.48630818
 1.48481931 1.48333744 1.48186256 1.48039466 1.47893372 1.47747972
 1.47603266 1.47459251 1.47315927 1.4717329  1.47031341 1.46890077
 1.46749498 1.466096   1.46470384 1.46331846 1.46193987 1.46056804
 1.45920296 1.45784461 1.45649298 1.45514805 1.4538098  1.45247823
 1.45115332 1.44983504 1.4485234  1.44721836 1.44591992 1.44462806
 1.44334277 1.44206403 1.44079182 1.43952613 1.43826695 1.43701426
 1.43576805 1.43452829 1.43329498 1.4320681  1.43084763 1.42963356
 1.42842588 1.42722457 1.42602962 1.424841   1.42365871 1.42248273
 1.42131304 1.42014963 1.41899249 1.4178416  1.41669694 1.41555851
 1.41442628 1.41330024 1.41218038 1.41106668 1.40995912 1.4088577
 1.40776239 1.40667319 1.40559007 1.40451303 1.40344204 1.4023771
 1.40131819 1.40026528 1.39921838 1.39817747 1.39714252 1.39611353
 1.39509048 1.39407335 1.39306214 1.39205682 1.39105739 1.39006382
 1.38907611 1.38809424 1.38711819 1.38614795 1.38518351 1.38422485
 1.38327196 1.38232482 1.38138341 1.38044774 1.37951777 1.37859349
 1.3776749  1.37676198 1.37585471 1.37495307 1.37405706 1.37316666
 1.37228186 1.37140264 1.37052898 1.36966088 1.36879832 1.36794129
 1.36708977 1.36624374 1.3654032  1.36456813 1.36373851 1.36291433
 1.36209559 1.36128225 1.36047432 1.35967177 1.3588746  1.35808278
 1.35729631 1.35651517 1.35573935 1.35496883 1.3542036  1.35344365
 1.35268896 1.35193951 1.35119531 1.35045632 1.34972255 1.34899397
 1.34827057 1.34755234 1.34683926 1.34613132 1.34542851 1.34473082
 1.34403822 1.34335071 1.34266828 1.34199091 1.34131858 1.34065129
 1.33998902 1.33933176 1.33867949 1.3380322  1.33738988 1.33675252
 1.3361201  1.33549261 1.33487003 1.33425236 1.33363957 1.33303167
 1.33242862 1.33183043 1.33123708 1.33064855 1.33006483 1.32948592
 1.32891179 1.32834243 1.32777784 1.32721799 1.32666288 1.32611249
 1.32556682 1.32502584 1.32448955 1.32395793 1.32343097 1.32290866
 1.32239098 1.32187792 1.32136948 1.32086563 1.32036637 1.31987169
 1.31938156 1.31889598 1.31841494 1.31793842 1.31746641 1.3169989
 1.31653588 1.31607734 1.31562325 1.31517362 1.31472843 1.31428766
 1.31385131 1.31341936 1.3129918  1.31256862 1.31214981 1.31173535
 1.31132523 1.31091945 1.31051798 1.31012082 1.30972796 1.30933938
 1.30895507 1.30857502 1.30819922 1.30782766 1.30746033 1.30709721
 1.30673829 1.30638356 1.30603301 1.30568663 1.3053444  1.30500632
 1.30467237 1.30434255 1.30401683 1.30369522 1.30337769 1.30306424
 1.30275485 1.30244952 1.30214823 1.30185098 1.30155774 1.30126852
 1.30098329 1.30070205 1.30042479 1.30015149 1.29988215 1.29961675
 1.29935528 1.29909774 1.2988441  1.29859437 1.29834852 1.29810656
 1.29786846 1.29763421 1.29740382 1.29717726 1.29695452 1.2967356
 1.29652048 1.29630915 1.29610161 1.29589784 1.29569783 1.29550157
 1.29530905 1.29512026 1.29493519 1.29475383 1.29457616 1.29440219
 1.29423189 1.29406527 1.2939023  1.29374297 1.29358729 1.29343523
 1.29328679 1.29314196 1.29300072 1.29286307 1.292729   1.29259849
 1.29247154 1.29234814 1.29222827 1.29211193 1.29199911 1.29188979
 1.29178398 1.29168165 1.2915828  1.29148741 1.29139549 1.29130701
 1.29122198 1.29114037 1.29106218 1.29098741 1.29091603 1.29084805
 1.29078344 1.29072221 1.29066435 1.29060983 1.29055866 1.29051083
 1.29046632 1.29042513 1.29038724 1.29035265 1.29032135 1.29029333
 1.29026858 1.29024709 1.29022885 1.29021386 1.29020209 1.29019356
 1.29018823 1.29018612 1.2901872  1.29019147 1.29019892 1.29020954
 1.29022332 1.29024026 1.29026034 1.29028356 1.2903099  1.29033936
 1.29037193 1.2904076  1.29044636 1.29048821 1.29053313 1.29058112
 1.29063216 1.29068626 1.29074339 1.29080356 1.29086675 1.29093295
 1.29100216 1.29107438 1.29114958 1.29122776 1.29130892 1.29139304
 1.29148012 1.29157014 1.29166311 1.29175901 1.29185784 1.29195958
 1.29206423 1.29217178 1.29228222 1.29239554 1.29251175 1.29263082
 1.29275275 1.29287753 1.29300515 1.29313562 1.29326891 1.29340502
 1.29354394 1.29368568 1.2938302  1.29397752 1.29412762 1.2942805
 1.29443614 1.29459454 1.29475569 1.29491959 1.29508622 1.29525558
 1.29542766 1.29560246 1.29577996 1.29596017 1.29614306 1.29632864
 1.2965169  1.29670783 1.29690141 1.29709766 1.29729655 1.29749808
 1.29770225 1.29790904 1.29811846 1.29833048 1.29854511 1.29876234
 1.29898216 1.29920456 1.29942954 1.29965709 1.2998872  1.30011987
 1.30035509 1.30059285 1.30083314 1.30107597 1.30132131 1.30156918
 1.30181955 1.30207242 1.30232778 1.30258564 1.30284597 1.30310878
 1.30337406 1.3036418  1.303912   1.30418464 1.30445973 1.30473725
 1.3050172  1.30529957 1.30558436 1.30587156 1.30616116 1.30645316
 1.30674755 1.30704432 1.30734348 1.307645   1.30794889 1.30825514
 1.30856374 1.30887469 1.30918798 1.3095036  1.30982156 1.31014183
 1.31046443 1.31078933 1.31111654 1.31144604 1.31177784 1.31211192
 1.31244829 1.31278693 1.31312784 1.31347101 1.31381644 1.31416412
 1.31451404 1.31486621 1.3152206  1.31557723 1.31593608 1.31629715
 1.31666043 1.31702591 1.31739359 1.31776347 1.31813554 1.31850979
 1.31888622 1.31926482 1.31964558 1.32002851 1.3204136  1.32080083
 1.32119021 1.32158173 1.32197539 1.32237117 1.32276908 1.3231691
 1.32357124 1.32397549 1.32438184 1.32479029 1.32520083 1.32561346
 1.32602817 1.32644495 1.32686381 1.32728474 1.32770773 1.32813277
 1.32855987 1.32898901 1.32942019 1.32985342 1.33028867 1.33072595
 1.33116526 1.33160658 1.33204991 1.33249525 1.3329426  1.33339194
 1.33384328 1.3342966  1.33475191 1.3352092  1.33566846 1.3361297
 1.3365929  1.33705806 1.33752517 1.33799424 1.33846525 1.33893821
 1.33941311 1.33988994 1.3403687  1.34084938 1.34133198 1.3418165
 1.34230293 1.34279127 1.34328151 1.34377365 1.34426769 1.34476361
 1.34526142 1.34576111 1.34626268 1.34676612 1.34727143 1.34777861
 1.34828765 1.34879854 1.34931128 1.34982588 1.35034232 1.35086059
 1.35138071 1.35190265 1.35242643 1.35295203 1.35347945 1.35400868
 1.35453973 1.35507259 1.35560725 1.35614371 1.35668198 1.35722203
 1.35776387 1.3583075  1.35885291 1.3594001  1.35994907 1.3604998
 1.3610523  1.36160657 1.36216259 1.36272038 1.36327991 1.3638412
 1.36440423 1.364969   1.36553551 1.36610376 1.36667373 1.36724544
 1.36781887 1.36839402 1.36897089 1.36954948 1.37012977 1.37071178
 1.37129549 1.3718809  1.37246801 1.37305681 1.3736473  1.37423948
 1.37483335 1.3754289  1.37602613 1.37662503 1.37722561 1.37782785
 1.37843177 1.37903734 1.37964457 1.38025347 1.38086401 1.38147621
 1.38209005 1.38270554 1.38332267 1.38394144 1.38456185 1.38518389
 1.38580756 1.38643286 1.38705978 1.38768832 1.38831849 1.38895027
 1.38958366 1.39021866 1.39085528 1.39149349 1.39213331 1.39277473
 1.39341775 1.39406236 1.39470856 1.39535636 1.39600574 1.3966567
 1.39730925 1.39796337 1.39861907 1.39927635 1.39993519 1.40059561
 1.40125759 1.40192114 1.40258625 1.40325292 1.40392114 1.40459092
 1.40526225 1.40593514 1.40660957 1.40728554 1.40796306 1.40864212
 1.40932272 1.41000485 1.41068852 1.41137372 1.41206045 1.41274871
 1.41343849 1.4141298  1.41482263 1.41551698 1.41621284 1.41691022
 1.41760912 1.41830952 1.41901143 1.41971486 1.42041978 1.42112621
 1.42183414 1.42254357 1.4232545  1.42396692 1.42468084 1.42539625
 1.42611315 1.42683153 1.42755141 1.42827277 1.42899561 1.42971993
 1.43044573 1.43117301 1.43190177 1.432632   1.4333637  1.43409688
 1.43483152 1.43556763 1.43630521 1.43704425 1.43778476 1.43852673
 1.43927016 1.44001504 1.44076139 1.44150918 1.44225844 1.44300915
 1.4437613  1.44451491 1.44526997 1.44602647 1.44678442 1.44754381
 1.44830465 1.44906693 1.44983065 1.45059581 1.4513624  1.45213044
 1.45289991 1.45367081 1.45444315 1.45521692 1.45599212 1.45676875
 1.45754681 1.45832629 1.4591072  1.45988954 1.4606733  1.46145849
 1.4622451  1.46303313 1.46382258 1.46461344 1.46540573 1.46619944
 1.46699456 1.46779109 1.46858904 1.46938841 1.47018919 1.47099138
 1.47179498 1.47259999 1.47340641 1.47421424 1.47502348 1.47583413
 1.47664618 1.47745964 1.4782745  1.47909077 1.47990844 1.48072752
 1.48154799 1.48236987 1.48319315 1.48401784 1.48484392 1.4856714
 1.48650028 1.48733056 1.48816224 1.48899532 1.48982979 1.49066566
 1.49150293 1.49234159 1.49318165 1.4940231 ]
t = [1.09451205e+09 1.09451212e+09 1.09451219e+09 1.09451226e+09
 1.09451232e+09 1.09451239e+09 1.09451246e+09 1.09451253e+09
 1.09451260e+09 1.09451267e+09 1.09451273e+09 1.09451280e+09
 1.09451287e+09 1.09451294e+09 1.09451301e+09 1.09451307e+09
 1.09451314e+09 1.09451321e+09 1.09451328e+09 1.09451335e+09
 1.09451342e+09 1.09451348e+09 1.09451355e+09 1.09451362e+09
 1.09451369e+09 1.09451376e+09 1.09451383e+09 1.09451389e+09
 1.09451396e+09 1.09451403e+09 1.09451410e+09 1.09451417e+09
 1.09451424e+09 1.09451430e+09 1.09451437e+09 1.09451444e+09
 1.09451451e+09 1.09451458e+09 1.09451465e+09 1.09451471e+09
 1.09451478e+09 1.09451485e+09 1.09451492e+09 1.09451499e+09
 1.09451506e+09 1.09451512e+09 1.09451519e+09 1.09451526e+09
 1.09451533e+09 1.09451540e+09 1.09451547e+09 1.09451553e+09
 1.09451560e+09 1.09451567e+09 1.09451574e+09 1.09451581e+09
 1.09451588e+09 1.09451594e+09 1.09451601e+09 1.09451608e+09
 1.09451615e+09 1.09451622e+09 1.09451629e+09 1.09451635e+09
 1.09451642e+09 1.09451649e+09 1.09451656e+09 1.09451663e+09
 1.09451670e+09 1.09451676e+09 1.09451683e+09 1.09451690e+09
 1.09451697e+09 1.09451704e+09 1.09451711e+09 1.09451717e+09
 1.09451724e+09 1.09451731e+09 1.09451738e+09 1.09451745e+09
 1.09451752e+09 1.09451758e+09 1.09451765e+09 1.09451772e+09
 1.09451779e+09 1.09451786e+09 1.09451793e+09 1.09451799e+09
 1.09451806e+09 1.09451813e+09 1.09451820e+09 1.09451827e+09
 1.09451834e+09 1.09451840e+09 1.09451847e+09 1.09451854e+09
 1.09451861e+09 1.09451868e+09 1.09451875e+09 1.09451881e+09
 1.09451888e+09 1.09451895e+09 1.09451902e+09 1.09451909e+09
 1.09451916e+09 1.09451922e+09 1.09451929e+09 1.09451936e+09
 1.09451943e+09 1.09451950e+09 1.09451957e+09 1.09451963e+09
 1.09451970e+09 1.09451977e+09 1.09451984e+09 1.09451991e+09
 1.09451998e+09 1.09452004e+09 1.09452011e+09 1.09452018e+09
 1.09452025e+09 1.09452032e+09 1.09452039e+09 1.09452045e+09
 1.09452052e+09 1.09452059e+09 1.09452066e+09 1.09452073e+09
 1.09452079e+09 1.09452086e+09 1.09452093e+09 1.09452100e+09
 1.09452107e+09 1.09452114e+09 1.09452120e+09 1.09452127e+09
 1.09452134e+09 1.09452141e+09 1.09452148e+09 1.09452155e+09
 1.09452161e+09 1.09452168e+09 1.09452175e+09 1.09452182e+09
 1.09452189e+09 1.09452196e+09 1.09452202e+09 1.09452209e+09
 1.09452216e+09 1.09452223e+09 1.09452230e+09 1.09452237e+09
 1.09452243e+09 1.09452250e+09 1.09452257e+09 1.09452264e+09
 1.09452271e+09 1.09452278e+09 1.09452284e+09 1.09452291e+09
 1.09452298e+09 1.09452305e+09 1.09452312e+09 1.09452319e+09
 1.09452325e+09 1.09452332e+09 1.09452339e+09 1.09452346e+09
 1.09452353e+09 1.09452360e+09 1.09452366e+09 1.09452373e+09
 1.09452380e+09 1.09452387e+09 1.09452394e+09 1.09452401e+09
 1.09452407e+09 1.09452414e+09 1.09452421e+09 1.09452428e+09
 1.09452435e+09 1.09452442e+09 1.09452448e+09 1.09452455e+09
 1.09452462e+09 1.09452469e+09 1.09452476e+09 1.09452483e+09
 1.09452489e+09 1.09452496e+09 1.09452503e+09 1.09452510e+09
 1.09452517e+09 1.09452524e+09 1.09452530e+09 1.09452537e+09
 1.09452544e+09 1.09452551e+09 1.09452558e+09 1.09452565e+09
 1.09452571e+09 1.09452578e+09 1.09452585e+09 1.09452592e+09
 1.09452599e+09 1.09452606e+09 1.09452612e+09 1.09452619e+09
 1.09452626e+09 1.09452633e+09 1.09452640e+09 1.09452647e+09
 1.09452653e+09 1.09452660e+09 1.09452667e+09 1.09452674e+09
 1.09452681e+09 1.09452688e+09 1.09452694e+09 1.09452701e+09
 1.09452708e+09 1.09452715e+09 1.09452722e+09 1.09452729e+09
 1.09452735e+09 1.09452742e+09 1.09452749e+09 1.09452756e+09
 1.09452763e+09 1.09452770e+09 1.09452776e+09 1.09452783e+09
 1.09452790e+09 1.09452797e+09 1.09452804e+09 1.09452810e+09
 1.09452817e+09 1.09452824e+09 1.09452831e+09 1.09452838e+09
 1.09452845e+09 1.09452851e+09 1.09452858e+09 1.09452865e+09
 1.09452872e+09 1.09452879e+09 1.09452886e+09 1.09452892e+09
 1.09452899e+09 1.09452906e+09 1.09452913e+09 1.09452920e+09
 1.09452927e+09 1.09452933e+09 1.09452940e+09 1.09452947e+09
 1.09452954e+09 1.09452961e+09 1.09452968e+09 1.09452974e+09
 1.09452981e+09 1.09452988e+09 1.09452995e+09 1.09453002e+09
 1.09453009e+09 1.09453015e+09 1.09453022e+09 1.09453029e+09
 1.09453036e+09 1.09453043e+09 1.09453050e+09 1.09453056e+09
 1.09453063e+09 1.09453070e+09 1.09453077e+09 1.09453084e+09
 1.09453091e+09 1.09453097e+09 1.09453104e+09 1.09453111e+09
 1.09453118e+09 1.09453125e+09 1.09453132e+09 1.09453138e+09
 1.09453145e+09 1.09453152e+09 1.09453159e+09 1.09453166e+09
 1.09453173e+09 1.09453179e+09 1.09453186e+09 1.09453193e+09
 1.09453200e+09 1.09453207e+09 1.09453214e+09 1.09453220e+09
 1.09453227e+09 1.09453234e+09 1.09453241e+09 1.09453248e+09
 1.09453255e+09 1.09453261e+09 1.09453268e+09 1.09453275e+09
 1.09453282e+09 1.09453289e+09 1.09453296e+09 1.09453302e+09
 1.09453309e+09 1.09453316e+09 1.09453323e+09 1.09453330e+09
 1.09453337e+09 1.09453343e+09 1.09453350e+09 1.09453357e+09
 1.09453364e+09 1.09453371e+09 1.09453378e+09 1.09453384e+09
 1.09453391e+09 1.09453398e+09 1.09453405e+09 1.09453412e+09
 1.09453419e+09 1.09453425e+09 1.09453432e+09 1.09453439e+09
 1.09453446e+09 1.09453453e+09 1.09453460e+09 1.09453466e+09
 1.09453473e+09 1.09453480e+09 1.09453487e+09 1.09453494e+09
 1.09453501e+09 1.09453507e+09 1.09453514e+09 1.09453521e+09
 1.09453528e+09 1.09453535e+09 1.09453542e+09 1.09453548e+09
 1.09453555e+09 1.09453562e+09 1.09453569e+09 1.09453576e+09
 1.09453582e+09 1.09453589e+09 1.09453596e+09 1.09453603e+09
 1.09453610e+09 1.09453617e+09 1.09453623e+09 1.09453630e+09
 1.09453637e+09 1.09453644e+09 1.09453651e+09 1.09453658e+09
 1.09453664e+09 1.09453671e+09 1.09453678e+09 1.09453685e+09
 1.09453692e+09 1.09453699e+09 1.09453705e+09 1.09453712e+09
 1.09453719e+09 1.09453726e+09 1.09453733e+09 1.09453740e+09
 1.09453746e+09 1.09453753e+09 1.09453760e+09 1.09453767e+09
 1.09453774e+09 1.09453781e+09 1.09453787e+09 1.09453794e+09
 1.09453801e+09 1.09453808e+09 1.09453815e+09 1.09453822e+09
 1.09453828e+09 1.09453835e+09 1.09453842e+09 1.09453849e+09
 1.09453856e+09 1.09453863e+09 1.09453869e+09 1.09453876e+09
 1.09453883e+09 1.09453890e+09 1.09453897e+09 1.09453904e+09
 1.09453910e+09 1.09453917e+09 1.09453924e+09 1.09453931e+09
 1.09453938e+09 1.09453945e+09 1.09453951e+09 1.09453958e+09
 1.09453965e+09 1.09453972e+09 1.09453979e+09 1.09453986e+09
 1.09453992e+09 1.09453999e+09 1.09454006e+09 1.09454013e+09
 1.09454020e+09 1.09454027e+09 1.09454033e+09 1.09454040e+09
 1.09454047e+09 1.09454054e+09 1.09454061e+09 1.09454068e+09
 1.09454074e+09 1.09454081e+09 1.09454088e+09 1.09454095e+09
 1.09454102e+09 1.09454109e+09 1.09454115e+09 1.09454122e+09
 1.09454129e+09 1.09454136e+09 1.09454143e+09 1.09454150e+09
 1.09454156e+09 1.09454163e+09 1.09454170e+09 1.09454177e+09
 1.09454184e+09 1.09454191e+09 1.09454197e+09 1.09454204e+09
 1.09454211e+09 1.09454218e+09 1.09454225e+09 1.09454232e+09
 1.09454238e+09 1.09454245e+09 1.09454252e+09 1.09454259e+09
 1.09454266e+09 1.09454273e+09 1.09454279e+09 1.09454286e+09
 1.09454293e+09 1.09454300e+09 1.09454307e+09 1.09454314e+09
 1.09454320e+09 1.09454327e+09 1.09454334e+09 1.09454341e+09
 1.09454348e+09 1.09454354e+09 1.09454361e+09 1.09454368e+09
 1.09454375e+09 1.09454382e+09 1.09454389e+09 1.09454395e+09
 1.09454402e+09 1.09454409e+09 1.09454416e+09 1.09454423e+09
 1.09454430e+09 1.09454436e+09 1.09454443e+09 1.09454450e+09
 1.09454457e+09 1.09454464e+09 1.09454471e+09 1.09454477e+09
 1.09454484e+09 1.09454491e+09 1.09454498e+09 1.09454505e+09
 1.09454512e+09 1.09454518e+09 1.09454525e+09 1.09454532e+09
 1.09454539e+09 1.09454546e+09 1.09454553e+09 1.09454559e+09
 1.09454566e+09 1.09454573e+09 1.09454580e+09 1.09454587e+09
 1.09454594e+09 1.09454600e+09 1.09454607e+09 1.09454614e+09
 1.09454621e+09 1.09454628e+09 1.09454635e+09 1.09454641e+09
 1.09454648e+09 1.09454655e+09 1.09454662e+09 1.09454669e+09
 1.09454676e+09 1.09454682e+09 1.09454689e+09 1.09454696e+09
 1.09454703e+09 1.09454710e+09 1.09454717e+09 1.09454723e+09
 1.09454730e+09 1.09454737e+09 1.09454744e+09 1.09454751e+09
 1.09454758e+09 1.09454764e+09 1.09454771e+09 1.09454778e+09
 1.09454785e+09 1.09454792e+09 1.09454799e+09 1.09454805e+09
 1.09454812e+09 1.09454819e+09 1.09454826e+09 1.09454833e+09
 1.09454840e+09 1.09454846e+09 1.09454853e+09 1.09454860e+09
 1.09454867e+09 1.09454874e+09 1.09454881e+09 1.09454887e+09
 1.09454894e+09 1.09454901e+09 1.09454908e+09 1.09454915e+09
 1.09454922e+09 1.09454928e+09 1.09454935e+09 1.09454942e+09
 1.09454949e+09 1.09454956e+09 1.09454963e+09 1.09454969e+09
 1.09454976e+09 1.09454983e+09 1.09454990e+09 1.09454997e+09
 1.09455004e+09 1.09455010e+09 1.09455017e+09 1.09455024e+09
