name =JUICE_ROI_GAN_4_4_04
flyby = ['2034 NOV 18 09:58:51', '2034 NOV 19 09:58:51']
Observation TW = <SpiceCell dtype = 1, length = 0, size = 3400, card = 14, is_set = 1, adjust = 0, init = 1, base = 94198739057216, data = 94198739057264>
Res(t) = [0.81179356 0.81097585 0.81015863 0.80934189 0.80852564 0.80770988
 0.80689461 0.80607983 0.80526553 0.80445173 0.80363842 0.8028256
 0.80201327 0.80120144 0.80039011 0.79957927 0.79876893 0.79795908
 0.79714974 0.79634089 0.79553255 0.79472471 0.79391738 0.79311054
 0.79230422 0.7914984  0.7906931  0.7898883  0.78908401 0.78828024
 0.78747698 0.78667423 0.78587201 0.7850703  0.78426911 0.78346844
 0.7826683  0.78186868 0.78106958 0.78027102 0.77947298 0.77867547
 0.7778785  0.77708206 0.77628616 0.77549079 0.77469596 0.77390168
 0.77310794 0.77231474 0.77152209 0.77072999 0.76993844 0.76914744
 0.768357   0.76756711 0.76677778 0.76598902 0.76520081 0.76441317
 0.7636261  0.7628396  0.76205367 0.76126831 0.76048353 0.75969933
 0.75891571 0.75813267 0.75735021 0.75656835 0.75578707 0.75500639
 0.7542263  0.75344681 0.75266792 0.75188963 0.75111194 0.75033487
 0.7495584  0.74878255 0.74800731 0.7472327  0.7464587  0.74568533
 0.74491258 0.74414046 0.74336898 0.74259813 0.74182791 0.74105834
 0.74028942 0.73952113 0.7387535  0.73798653 0.7372202  0.73645454
 0.73568954 0.7349252  0.73416154 0.73339854 0.73263622 0.73187457
 0.73111361 0.73035333 0.72959374 0.72883484 0.72807664 0.72731913
 0.72656232 0.72580622 0.72505083 0.72429614 0.72354218 0.72278893
 0.7220364  0.7212846  0.72053353 0.71978319 0.71903359 0.71828473
 0.71753661 0.71678924 0.71604262 0.71529676 0.71455165 0.71380731
 0.71306373 0.71232093 0.7115789  0.71083765 0.71009718 0.7093575
 0.7086186  0.70788051 0.70714321 0.70640671 0.70567102 0.70493614
 0.70420207 0.70346883 0.7027364  0.70200481 0.70127404 0.70054411
 0.69981503 0.69908678 0.69835939 0.69763285 0.69690716 0.69618234
 0.69545838 0.6947353  0.69401309 0.69329175 0.69257131 0.69185175
 0.69113308 0.69041532 0.68969845 0.68898249 0.68826745 0.68755332
 0.68684011 0.68612782 0.68541647 0.68470605 0.68399657 0.68328804
 0.68258045 0.68187382 0.68116815 0.68046344 0.6797597  0.67905693
 0.67835515 0.67765434 0.67695452 0.6762557  0.67555788 0.67486105
 0.67416524 0.67347044 0.67277666 0.6720839  0.67139217 0.67070147
 0.67001181 0.6693232  0.66863563 0.66794912 0.66726366 0.66657928
 0.66589596 0.66521371 0.66453255 0.66385247 0.66317348 0.66249559
 0.6618188  0.66114311 0.66046854 0.65979509 0.65912275 0.65845155
 0.65778148 0.65711254 0.65644475 0.65577812 0.65511263 0.65444831
 0.65378515 0.65312316 0.65246235 0.65180272 0.65114428 0.65048704
 0.64983099 0.64917614 0.64852251 0.64787009 0.64721889 0.64656892
 0.64592018 0.64527268 0.64462643 0.64398142 0.64333766 0.64269517
 0.64205394 0.64141398 0.6407753  0.64013791 0.6395018  0.63886699
 0.63823347 0.63760126 0.63697036 0.63634078 0.63571252 0.63508559
 0.63446    0.63383574 0.63321283 0.63259127 0.63197106 0.63135222
 0.63073475 0.63011865 0.62950393 0.62889059 0.62827865 0.6276681
 0.62705896 0.62645123 0.6258449  0.62524    0.62463653 0.62403448
 0.62343388 0.62283471 0.622237   0.62164074 0.62104594 0.6204526
 0.61986074 0.61927035 0.61868145 0.61809404 0.61750812 0.6169237
 0.61634079 0.61575938 0.6151795  0.61460114 0.61402431 0.61344902
 0.61287526 0.61230305 0.61173239 0.61116329 0.61059576 0.61002979
 0.6094654  0.60890258 0.60834136 0.60778172 0.60722368 0.60666725
 0.60611242 0.60555921 0.60500762 0.60445765 0.60390931 0.60336261
 0.60281755 0.60227414 0.60173239 0.60119229 0.60065385 0.60011709
 0.599582   0.59904859 0.59851686 0.59798683 0.5974585  0.59693187
 0.59640694 0.59588373 0.59536224 0.59484247 0.59432443 0.59380813
 0.59329356 0.59278075 0.59226968 0.59176037 0.59125282 0.59074703
 0.59024302 0.58974079 0.58924034 0.58874167 0.5882448  0.58774972
 0.58725645 0.58676499 0.58627534 0.5857875  0.5853015  0.58481731
 0.58433497 0.58385446 0.58337579 0.58289897 0.58242401 0.5819509
 0.58147966 0.58101028 0.58054278 0.58007715 0.57961341 0.57915156
 0.57869159 0.57823352 0.57777736 0.5773231  0.57687075 0.57642031
 0.5759718  0.57552521 0.57508054 0.57463782 0.57419703 0.57375818
 0.57332128 0.57288633 0.57245334 0.5720223  0.57159323 0.57116613
 0.57074101 0.57031786 0.56989669 0.56947751 0.56906031 0.56864512
 0.56823192 0.56782072 0.56741153 0.56700435 0.56659918 0.56619603
 0.5657949  0.5653958  0.56499873 0.5646037  0.5642107  0.56381974
 0.56343083 0.56304397 0.56265916 0.56227641 0.56189571 0.56151708
 0.56114052 0.56076603 0.56039361 0.56002327 0.55965501 0.55928883
 0.55892474 0.55856274 0.55820284 0.55784503 0.55748933 0.55713573
 0.55678423 0.55643485 0.55608758 0.55574242 0.55539939 0.55505847
 0.55471968 0.55438302 0.55404849 0.5537161  0.55338584 0.55305772
 0.55273174 0.5524079  0.55208622 0.55176668 0.55144929 0.55113406
 0.55082099 0.55051008 0.55020133 0.54989474 0.54959032 0.54928807
 0.54898799 0.54869008 0.54839435 0.5481008  0.54780943 0.54752024
 0.54723323 0.54694841 0.54666578 0.54638534 0.54610709 0.54583103
 0.54555717 0.54528551 0.54501605 0.54474878 0.54448372 0.54422086
 0.54396021 0.54370176 0.54344552 0.54319149 0.54293968 0.54269007
 0.54244268 0.5421975  0.54195454 0.5417138  0.54147528 0.54123897
 0.54100489 0.54077302 0.54054338 0.54031597 0.54009077 0.53986781
 0.53964707 0.53942855 0.53921227 0.53899821 0.53878638 0.53857678
 0.53836941 0.53816427 0.53796136 0.53776069 0.53756224 0.53736603
 0.53717206 0.53698031 0.5367908  0.53660352 0.53641847 0.53623566
 0.53605508 0.53587674 0.53570063 0.53552676 0.53535511 0.53518571
 0.53501853 0.53485359 0.53469088 0.53453041 0.53437216 0.53421615
 0.53406238 0.53391083 0.53376151 0.53361443 0.53346957 0.53332694
 0.53318654 0.53304837 0.53291243 0.53277871 0.53264722 0.53251796
 0.53239091 0.53226609 0.5321435  0.53202312 0.53190497 0.53178903
 0.53167531 0.53156381 0.53145452 0.53134745 0.53124259 0.53113994
 0.53103951 0.53094128 0.53084526 0.53075145 0.53065984 0.53057043
 0.53048323 0.53039823 0.53031543 0.53023482 0.53015641 0.53008019
 0.53000616 0.52993433 0.52986468 0.52979722 0.52973194 0.52966885
 0.52960794 0.5295492  0.52949264 0.52943826 0.52938605 0.529336
 0.52928813 0.52924242 0.52919888 0.52915749 0.52911827 0.5290812
 0.52904629 0.52901353 0.52898291 0.52895445 0.52892813 0.52890395
 0.52888191 0.528862   0.52884423 0.5288286  0.52881509 0.5288037
 0.52879444 0.5287873  0.52878228 0.52877937 0.52877857 0.52877989
 0.5287833  0.52878883 0.52879645 0.52880617 0.52881798 0.52883188
 0.52884787 0.52886595 0.52888611 0.52890834 0.52893265 0.52895903
 0.52898748 0.529018   0.52905058 0.52908521 0.52912191 0.52916065
 0.52920144 0.52924428 0.52928915 0.52933607 0.52938502 0.529436
 0.52948901 0.52954404 0.52960109 0.52966016 0.52972124 0.52978433
 0.52984942 0.52991652 0.52998561 0.5300567  0.53012977 0.53020484
 0.53028188 0.53036091 0.5304419  0.53052487 0.53060981 0.53069671
 0.53078557 0.53087638 0.53096914 0.53106385 0.53116051 0.5312591
 0.53135962 0.53146208 0.53156646 0.53167277 0.53178099 0.53189113
 0.53200318 0.53211713 0.53223298 0.53235073 0.53247038 0.53259191
 0.53271532 0.53284062 0.53296779 0.53309683 0.53322774 0.53336051
 0.53349514 0.53363162 0.53376995 0.53391013 0.53405215 0.534196
 0.53434168 0.5344892  0.53463853 0.53478968 0.53494265 0.53509742
 0.535254   0.53541238 0.53557255 0.53573451 0.53589826 0.53606379
 0.5362311  0.53640018 0.53657103 0.53674364 0.53691801 0.53709413
 0.537272   0.53745162 0.53763298 0.53781607 0.53800089 0.53818744
 0.5383757  0.53856569 0.53875738 0.53895078 0.53914589 0.53934269
 0.53954118 0.53974136 0.53994323 0.54014677 0.54035199 0.54055887
 0.54076742 0.54097763 0.54118949 0.541403   0.54161815 0.54183495
 0.54205338 0.54227344 0.54249513 0.54271843 0.54294335 0.54316989
 0.54339803 0.54362777 0.54385911 0.54409203 0.54432655 0.54456265
 0.54480032 0.54503957 0.54528038 0.54552276 0.5457667  0.54601218
 0.54625922 0.5465078  0.54675792 0.54700957 0.54726275 0.54751745
 0.54777368 0.54803141 0.54829066 0.54855141 0.54881366 0.54907741
 0.54934265 0.54960937 0.54987757 0.55014725 0.5504184  0.55069101
 0.55096509 0.55124062 0.55151761 0.55179604 0.55207591 0.55235722
 0.55263997 0.55292414 0.55320973 0.55349674 0.55378517 0.554075
 0.55436624 0.55465888 0.55495291 0.55524833 0.55554514 0.55584332
 0.55614289 0.55644382 0.55674612 0.55704978 0.5573548  0.55766116
 0.55796888 0.55827794 0.55858834 0.55890007 0.55921313 0.55952751
 0.55984321 0.56016023 0.56047856 0.56079819 0.56111912 0.56144135
 0.56176487 0.56208968 0.56241577 0.56274314 0.56307179 0.5634017
 0.56373288 0.56406531 0.56439901 0.56473395 0.56507014 0.56540757
 0.56574624 0.56608614 0.56642728 0.56676963 0.56711321 0.567458
 0.567804   0.56815121 0.56849962 0.56884923 0.56920003 0.56955202
 0.56990519 0.57025955 0.57061508 0.57097179 0.57132966 0.5716887
 0.57204889 0.57241024 0.57277274 0.57313639 0.57350117 0.5738671
 0.57423416 0.57460235 0.57497167 0.5753421  0.57571366 0.57608632
 0.5764601  0.57683498 0.57721096 0.57758804 0.57796621 0.57834547
 0.57872582 0.57910724 0.57948974 0.57987332 0.58025796 0.58064367
 0.58103043 0.58141826 0.58180714 0.58219706 0.58258804 0.58298005
 0.5833731  0.58376718 0.5841623  0.58455844 0.5849556  0.58535378
 0.58575298 0.58615318 0.5865544  0.58695661 0.58735983 0.58776404
 0.58816925 0.58857544 0.58898262 0.58939078 0.58979992 0.59021003
 0.59062111 0.59103316 0.59144618 0.59186015 0.59227508 0.59269096
 0.5931078  0.59352558 0.5939443  0.59436396 0.59478455 0.59520608
 0.59562854 0.59605193 0.59647623 0.59690146 0.5973276  0.59775465
 0.59818262 0.59861148 0.59904125 0.59947193 0.59990349 0.60033595
 0.6007693  0.60120354 0.60163866 0.60207466 0.60251153 0.60294928
 0.60338791 0.6038274  0.60426775 0.60470897 0.60515105 0.60559398
 0.60603776 0.6064824  0.60692788 0.60737421 0.60782137 0.60826938
 0.60871822 0.60916789 0.6096184  0.61006973 0.61052188 0.61097486
 0.61142865 0.61188326 0.61233869 0.61279492 0.61325196 0.61370981
 0.61416846 0.6146279  0.61508815 0.61554919 0.61601102 0.61647364
 0.61693705 0.61740124 0.61786622 0.61833197 0.6187985  0.6192658
 0.61973388 0.62020272 0.62067233 0.62114271 0.62161385 0.62208575
 0.6225584  0.62303181 0.62350597 0.62398089 0.62445655 0.62493296
 0.62541011 0.625888   0.62636663 0.626846   0.62732611 0.62780694
 0.62828851 0.62877081 0.62925383 0.62973758 0.63022205 0.63070724
 0.63119314 0.63167977 0.6321671  0.63265515 0.63314391 0.63363338
 0.63412356 0.63461444 0.63510602 0.6355983  0.63609128 0.63658496
 0.63707934 0.6375744  0.63807016 0.63856661 0.63906375 0.63956157
 0.64006008 0.64055927 0.64105914 0.64155969 0.64206092 0.64256283
 0.64306541 0.64356866 0.64407259 0.64457719 0.64508245 0.64558838
 0.64609498 0.64660224 0.64711016 0.64761875 0.64812799 0.64863789
 0.64914845 0.64965967 0.65017153 0.65068406 0.65119723 0.65171105
 0.65222552 0.65274064 0.65325641 0.65377282 0.65428987 0.65480757
 0.6553259  0.65584488 0.6563645  0.65688475 0.65740565 0.65792717
 0.65844933 0.65897213 0.65949556 0.66001962 0.66054431 0.66106962
 0.66159557 0.66212215 0.66264935 0.66317717 0.66370562 0.6642347
 0.66476439 0.66529471 0.66582565 0.66635721 0.66688939 0.66742219
 0.6679556  0.66848963 0.66902428 0.66955955 0.67009542 0.67063192
 0.67116902 0.67170674 0.67224507 0.67278401 0.67332356 0.67386372
 0.67440449 0.67494587 0.67548786 0.67603046]
t = [1.10072880e+09 1.10072889e+09 1.10072897e+09 1.10072906e+09
 1.10072915e+09 1.10072923e+09 1.10072932e+09 1.10072941e+09
 1.10072949e+09 1.10072958e+09 1.10072967e+09 1.10072975e+09
 1.10072984e+09 1.10072992e+09 1.10073001e+09 1.10073010e+09
 1.10073018e+09 1.10073027e+09 1.10073036e+09 1.10073044e+09
 1.10073053e+09 1.10073062e+09 1.10073070e+09 1.10073079e+09
 1.10073088e+09 1.10073096e+09 1.10073105e+09 1.10073114e+09
 1.10073122e+09 1.10073131e+09 1.10073139e+09 1.10073148e+09
 1.10073157e+09 1.10073165e+09 1.10073174e+09 1.10073183e+09
 1.10073191e+09 1.10073200e+09 1.10073209e+09 1.10073217e+09
 1.10073226e+09 1.10073235e+09 1.10073243e+09 1.10073252e+09
 1.10073261e+09 1.10073269e+09 1.10073278e+09 1.10073287e+09
 1.10073295e+09 1.10073304e+09 1.10073312e+09 1.10073321e+09
 1.10073330e+09 1.10073338e+09 1.10073347e+09 1.10073356e+09
 1.10073364e+09 1.10073373e+09 1.10073382e+09 1.10073390e+09
 1.10073399e+09 1.10073408e+09 1.10073416e+09 1.10073425e+09
 1.10073434e+09 1.10073442e+09 1.10073451e+09 1.10073459e+09
 1.10073468e+09 1.10073477e+09 1.10073485e+09 1.10073494e+09
 1.10073503e+09 1.10073511e+09 1.10073520e+09 1.10073529e+09
 1.10073537e+09 1.10073546e+09 1.10073555e+09 1.10073563e+09
 1.10073572e+09 1.10073581e+09 1.10073589e+09 1.10073598e+09
 1.10073607e+09 1.10073615e+09 1.10073624e+09 1.10073632e+09
 1.10073641e+09 1.10073650e+09 1.10073658e+09 1.10073667e+09
 1.10073676e+09 1.10073684e+09 1.10073693e+09 1.10073702e+09
 1.10073710e+09 1.10073719e+09 1.10073728e+09 1.10073736e+09
 1.10073745e+09 1.10073754e+09 1.10073762e+09 1.10073771e+09
 1.10073779e+09 1.10073788e+09 1.10073797e+09 1.10073805e+09
 1.10073814e+09 1.10073823e+09 1.10073831e+09 1.10073840e+09
 1.10073849e+09 1.10073857e+09 1.10073866e+09 1.10073875e+09
 1.10073883e+09 1.10073892e+09 1.10073901e+09 1.10073909e+09
 1.10073918e+09 1.10073927e+09 1.10073935e+09 1.10073944e+09
 1.10073952e+09 1.10073961e+09 1.10073970e+09 1.10073978e+09
 1.10073987e+09 1.10073996e+09 1.10074004e+09 1.10074013e+09
 1.10074022e+09 1.10074030e+09 1.10074039e+09 1.10074048e+09
 1.10074056e+09 1.10074065e+09 1.10074074e+09 1.10074082e+09
 1.10074091e+09 1.10074099e+09 1.10074108e+09 1.10074117e+09
 1.10074125e+09 1.10074134e+09 1.10074143e+09 1.10074151e+09
 1.10074160e+09 1.10074169e+09 1.10074177e+09 1.10074186e+09
 1.10074195e+09 1.10074203e+09 1.10074212e+09 1.10074221e+09
 1.10074229e+09 1.10074238e+09 1.10074247e+09 1.10074255e+09
 1.10074264e+09 1.10074272e+09 1.10074281e+09 1.10074290e+09
 1.10074298e+09 1.10074307e+09 1.10074316e+09 1.10074324e+09
 1.10074333e+09 1.10074342e+09 1.10074350e+09 1.10074359e+09
 1.10074368e+09 1.10074376e+09 1.10074385e+09 1.10074394e+09
 1.10074402e+09 1.10074411e+09 1.10074419e+09 1.10074428e+09
 1.10074437e+09 1.10074445e+09 1.10074454e+09 1.10074463e+09
 1.10074471e+09 1.10074480e+09 1.10074489e+09 1.10074497e+09
 1.10074506e+09 1.10074515e+09 1.10074523e+09 1.10074532e+09
 1.10074541e+09 1.10074549e+09 1.10074558e+09 1.10074567e+09
 1.10074575e+09 1.10074584e+09 1.10074592e+09 1.10074601e+09
 1.10074610e+09 1.10074618e+09 1.10074627e+09 1.10074636e+09
 1.10074644e+09 1.10074653e+09 1.10074662e+09 1.10074670e+09
 1.10074679e+09 1.10074688e+09 1.10074696e+09 1.10074705e+09
 1.10074714e+09 1.10074722e+09 1.10074731e+09 1.10074739e+09
 1.10074748e+09 1.10074757e+09 1.10074765e+09 1.10074774e+09
 1.10074783e+09 1.10074791e+09 1.10074800e+09 1.10074809e+09
 1.10074817e+09 1.10074826e+09 1.10074835e+09 1.10074843e+09
 1.10074852e+09 1.10074861e+09 1.10074869e+09 1.10074878e+09
 1.10074887e+09 1.10074895e+09 1.10074904e+09 1.10074912e+09
 1.10074921e+09 1.10074930e+09 1.10074938e+09 1.10074947e+09
 1.10074956e+09 1.10074964e+09 1.10074973e+09 1.10074982e+09
 1.10074990e+09 1.10074999e+09 1.10075008e+09 1.10075016e+09
 1.10075025e+09 1.10075034e+09 1.10075042e+09 1.10075051e+09
 1.10075059e+09 1.10075068e+09 1.10075077e+09 1.10075085e+09
 1.10075094e+09 1.10075103e+09 1.10075111e+09 1.10075120e+09
 1.10075129e+09 1.10075137e+09 1.10075146e+09 1.10075155e+09
 1.10075163e+09 1.10075172e+09 1.10075181e+09 1.10075189e+09
 1.10075198e+09 1.10075207e+09 1.10075215e+09 1.10075224e+09
 1.10075232e+09 1.10075241e+09 1.10075250e+09 1.10075258e+09
 1.10075267e+09 1.10075276e+09 1.10075284e+09 1.10075293e+09
 1.10075302e+09 1.10075310e+09 1.10075319e+09 1.10075328e+09
 1.10075336e+09 1.10075345e+09 1.10075354e+09 1.10075362e+09
 1.10075371e+09 1.10075379e+09 1.10075388e+09 1.10075397e+09
 1.10075405e+09 1.10075414e+09 1.10075423e+09 1.10075431e+09
 1.10075440e+09 1.10075449e+09 1.10075457e+09 1.10075466e+09
 1.10075475e+09 1.10075483e+09 1.10075492e+09 1.10075501e+09
 1.10075509e+09 1.10075518e+09 1.10075527e+09 1.10075535e+09
 1.10075544e+09 1.10075552e+09 1.10075561e+09 1.10075570e+09
 1.10075578e+09 1.10075587e+09 1.10075596e+09 1.10075604e+09
 1.10075613e+09 1.10075622e+09 1.10075630e+09 1.10075639e+09
 1.10075648e+09 1.10075656e+09 1.10075665e+09 1.10075674e+09
 1.10075682e+09 1.10075691e+09 1.10075699e+09 1.10075708e+09
 1.10075717e+09 1.10075725e+09 1.10075734e+09 1.10075743e+09
 1.10075751e+09 1.10075760e+09 1.10075769e+09 1.10075777e+09
 1.10075786e+09 1.10075795e+09 1.10075803e+09 1.10075812e+09
 1.10075821e+09 1.10075829e+09 1.10075838e+09 1.10075847e+09
 1.10075855e+09 1.10075864e+09 1.10075872e+09 1.10075881e+09
 1.10075890e+09 1.10075898e+09 1.10075907e+09 1.10075916e+09
 1.10075924e+09 1.10075933e+09 1.10075942e+09 1.10075950e+09
 1.10075959e+09 1.10075968e+09 1.10075976e+09 1.10075985e+09
 1.10075994e+09 1.10076002e+09 1.10076011e+09 1.10076019e+09
 1.10076028e+09 1.10076037e+09 1.10076045e+09 1.10076054e+09
 1.10076063e+09 1.10076071e+09 1.10076080e+09 1.10076089e+09
 1.10076097e+09 1.10076106e+09 1.10076115e+09 1.10076123e+09
 1.10076132e+09 1.10076141e+09 1.10076149e+09 1.10076158e+09
 1.10076167e+09 1.10076175e+09 1.10076184e+09 1.10076192e+09
 1.10076201e+09 1.10076210e+09 1.10076218e+09 1.10076227e+09
 1.10076236e+09 1.10076244e+09 1.10076253e+09 1.10076262e+09
 1.10076270e+09 1.10076279e+09 1.10076288e+09 1.10076296e+09
 1.10076305e+09 1.10076314e+09 1.10076322e+09 1.10076331e+09
 1.10076339e+09 1.10076348e+09 1.10076357e+09 1.10076365e+09
 1.10076374e+09 1.10076383e+09 1.10076391e+09 1.10076400e+09
 1.10076409e+09 1.10076417e+09 1.10076426e+09 1.10076435e+09
 1.10076443e+09 1.10076452e+09 1.10076461e+09 1.10076469e+09
 1.10076478e+09 1.10076487e+09 1.10076495e+09 1.10076504e+09
 1.10076512e+09 1.10076521e+09 1.10076530e+09 1.10076538e+09
 1.10076547e+09 1.10076556e+09 1.10076564e+09 1.10076573e+09
 1.10076582e+09 1.10076590e+09 1.10076599e+09 1.10076608e+09
 1.10076616e+09 1.10076625e+09 1.10076634e+09 1.10076642e+09
 1.10076651e+09 1.10076659e+09 1.10076668e+09 1.10076677e+09
 1.10076685e+09 1.10076694e+09 1.10076703e+09 1.10076711e+09
 1.10076720e+09 1.10076729e+09 1.10076737e+09 1.10076746e+09
 1.10076755e+09 1.10076763e+09 1.10076772e+09 1.10076781e+09
 1.10076789e+09 1.10076798e+09 1.10076807e+09 1.10076815e+09
 1.10076824e+09 1.10076832e+09 1.10076841e+09 1.10076850e+09
 1.10076858e+09 1.10076867e+09 1.10076876e+09 1.10076884e+09
 1.10076893e+09 1.10076902e+09 1.10076910e+09 1.10076919e+09
 1.10076928e+09 1.10076936e+09 1.10076945e+09 1.10076954e+09
 1.10076962e+09 1.10076971e+09 1.10076979e+09 1.10076988e+09
 1.10076997e+09 1.10077005e+09 1.10077014e+09 1.10077023e+09
 1.10077031e+09 1.10077040e+09 1.10077049e+09 1.10077057e+09
 1.10077066e+09 1.10077075e+09 1.10077083e+09 1.10077092e+09
 1.10077101e+09 1.10077109e+09 1.10077118e+09 1.10077127e+09
 1.10077135e+09 1.10077144e+09 1.10077152e+09 1.10077161e+09
 1.10077170e+09 1.10077178e+09 1.10077187e+09 1.10077196e+09
 1.10077204e+09 1.10077213e+09 1.10077222e+09 1.10077230e+09
 1.10077239e+09 1.10077248e+09 1.10077256e+09 1.10077265e+09
 1.10077274e+09 1.10077282e+09 1.10077291e+09 1.10077299e+09
 1.10077308e+09 1.10077317e+09 1.10077325e+09 1.10077334e+09
 1.10077343e+09 1.10077351e+09 1.10077360e+09 1.10077369e+09
 1.10077377e+09 1.10077386e+09 1.10077395e+09 1.10077403e+09
 1.10077412e+09 1.10077421e+09 1.10077429e+09 1.10077438e+09
 1.10077447e+09 1.10077455e+09 1.10077464e+09 1.10077472e+09
 1.10077481e+09 1.10077490e+09 1.10077498e+09 1.10077507e+09
 1.10077516e+09 1.10077524e+09 1.10077533e+09 1.10077542e+09
 1.10077550e+09 1.10077559e+09 1.10077568e+09 1.10077576e+09
 1.10077585e+09 1.10077594e+09 1.10077602e+09 1.10077611e+09
 1.10077619e+09 1.10077628e+09 1.10077637e+09 1.10077645e+09
 1.10077654e+09 1.10077663e+09 1.10077671e+09 1.10077680e+09
 1.10077689e+09 1.10077697e+09 1.10077706e+09 1.10077715e+09
 1.10077723e+09 1.10077732e+09 1.10077741e+09 1.10077749e+09
