name =JUICE_ROI_GAN_2_0_08
flyby = ['2034 NOV 18 09:58:51', '2034 NOV 19 09:58:51']
Observation TW = <SpiceCell dtype = 1, length = 0, size = 3200, card = 12, is_set = 1, adjust = 0, init = 1, base = 94628595236592, data = 94628595236640>
Res(t) = [0.53126827 0.53091683 0.53056642 0.53021704 0.5298687  0.52952139
 0.52917512 0.52882988 0.52848569 0.52814253 0.52780042 0.52745935
 0.52711932 0.52678034 0.52644241 0.52610553 0.5257697  0.52543492
 0.5251012  0.52476853 0.52443692 0.52410637 0.52377687 0.52344844
 0.52312107 0.52279477 0.52246953 0.52214536 0.52182225 0.52150022
 0.52117926 0.52085937 0.52054055 0.52022282 0.51990615 0.51959057
 0.51927607 0.51896265 0.51865031 0.51833906 0.51802889 0.51771981
 0.51741181 0.51710491 0.5167991  0.51649438 0.51619075 0.51588823
 0.51558679 0.51528646 0.51498722 0.51468909 0.51439206 0.51409613
 0.51380131 0.51350759 0.51321498 0.51292348 0.51263309 0.51234381
 0.51205564 0.51176859 0.51148266 0.51119784 0.51091414 0.51063156
 0.51035009 0.51006976 0.50979054 0.50951245 0.50923549 0.50895965
 0.50868494 0.50841136 0.50813891 0.50786759 0.50759741 0.50732836
 0.50706045 0.50679367 0.50652804 0.50626354 0.50600018 0.50573797
 0.5054769  0.50521697 0.50495819 0.50470055 0.50444406 0.50418873
 0.50393454 0.5036815  0.50342962 0.50317889 0.50292931 0.50268089
 0.50243363 0.50218752 0.50194258 0.50169879 0.50145617 0.50121471
 0.50097441 0.50073528 0.50049732 0.50026052 0.50002489 0.49979043
 0.49955714 0.49932502 0.49909407 0.49886429 0.49863569 0.49840827
 0.49818202 0.49795695 0.49773306 0.49751034 0.49728881 0.49706846
 0.49684929 0.49663131 0.49641451 0.49619889 0.49598446 0.49577122
 0.49555917 0.4953483  0.49513863 0.49493015 0.49472285 0.49451675
 0.49431185 0.49410814 0.49390562 0.49370431 0.49350418 0.49330526
 0.49310754 0.49291101 0.49271569 0.49252156 0.49232864 0.49213693
 0.49194641 0.49175711 0.491569   0.49138211 0.49119642 0.49101194
 0.49082866 0.4906466  0.49046575 0.4902861  0.49010767 0.48993045
 0.48975445 0.48957966 0.48940608 0.48923372 0.48906258 0.48889265
 0.48872394 0.48855644 0.48839017 0.48822511 0.48806128 0.48789866
 0.48773727 0.4875771  0.48741815 0.48726042 0.48710392 0.48694864
 0.48679459 0.48664176 0.48649016 0.48633979 0.48619064 0.48604272
 0.48589603 0.48575056 0.48560633 0.48546333 0.48532155 0.48518101
 0.4850417  0.48490362 0.48476677 0.48463116 0.48449677 0.48436363
 0.48423171 0.48410103 0.48397159 0.48384338 0.48371641 0.48359067
 0.48346617 0.48334291 0.48322088 0.48310009 0.48298054 0.48286223
 0.48274515 0.48262932 0.48251472 0.48240137 0.48228925 0.48217838
 0.48206874 0.48196035 0.4818532  0.48174728 0.48164261 0.48153919
 0.481437   0.48133606 0.48123636 0.4811379  0.48104068 0.48094471
 0.48084998 0.48075649 0.48066425 0.48057326 0.4804835  0.48039499
 0.48030773 0.4802217  0.48013693 0.4800534  0.47997111 0.47989006
 0.47981027 0.47973171 0.47965441 0.47957834 0.47950352 0.47942995
 0.47935762 0.47928654 0.4792167  0.47914811 0.47908076 0.47901466
 0.4789498  0.47888619 0.47882382 0.4787627  0.47870282 0.47864419
 0.4785868  0.47853066 0.47847576 0.47842211 0.4783697  0.47831853
 0.47826861 0.47821993 0.4781725  0.47812631 0.47808136 0.47803766
 0.4779952  0.47795398 0.477914   0.47787527 0.47783778 0.47780153
 0.47776652 0.47773276 0.47770023 0.47766895 0.47763891 0.4776101
 0.47758254 0.47755622 0.47753114 0.47750729 0.47748469 0.47746332
 0.47744319 0.4774243  0.47740665 0.47739023 0.47737506 0.47736111
 0.4773484  0.47733693 0.4773267  0.47731769 0.47730993 0.47730339
 0.47729809 0.47729402 0.47729119 0.47728958 0.47728921 0.47729007
 0.47729216 0.47729548 0.47730002 0.4773058  0.4773128  0.47732104
 0.4773305  0.47734118 0.47735309 0.47736623 0.47738059 0.47739618
 0.47741299 0.47743102 0.47745028 0.47747076 0.47749245 0.47751537
 0.47753951 0.47756487 0.47759144 0.47761924 0.47764825 0.47767847
 0.47770992 0.47774257 0.47777645 0.47781153 0.47784783 0.47788534
 0.47792406 0.47796399 0.47800513 0.47804748 0.47809104 0.4781358
 0.47818177 0.47822895 0.47827733 0.47832691 0.4783777  0.47842969
 0.47848288 0.47853728 0.47859287 0.47864966 0.47870765 0.47876683
 0.47882721 0.47888879 0.47895156 0.47901552 0.47908068 0.47914703
 0.47921456 0.47928329 0.47935321 0.47942431 0.4794966  0.47957007
 0.47964473 0.47972058 0.4797976  0.47987581 0.47995519 0.48003576
 0.48011751 0.48020043 0.48028453 0.4803698  0.48045625 0.48054387
 0.48063266 0.48072262 0.48081375 0.48090605 0.48099952 0.48109415
 0.48118995 0.48128692 0.48138504 0.48148433 0.48158478 0.48168639
 0.48178915 0.48189307 0.48199815 0.48210439 0.48221177 0.48232031
 0.48243    0.48254084 0.48265282 0.48276596 0.48288024 0.48299566
 0.48311223 0.48322994 0.48334879 0.48346878 0.48358991 0.48371218
 0.48383558 0.48396011 0.48408578 0.48421258 0.48434051 0.48446957
 0.48459976 0.48473107 0.48486351 0.48499707 0.48513176 0.48526756
 0.48540449 0.48554253 0.48568169 0.48582196 0.48596335 0.48610585
 0.48624946 0.48639419 0.48654002 0.48668695 0.48683499 0.48698414
 0.48713439 0.48728574 0.48743818 0.48759173 0.48774637 0.48790211
 0.48805894 0.48821686 0.48837588 0.48853598 0.48869717 0.48885944
 0.4890228  0.48918725 0.48935277 0.48951938 0.48968706 0.48985582
 0.49002565 0.49019656 0.49036854 0.49054159 0.49071571 0.4908909
 0.49106715 0.49124447 0.49142285 0.49160229 0.49178279 0.49196434
 0.49214696 0.49233062 0.49251535 0.49270112 0.49288794 0.49307581
 0.49326472 0.49345469 0.49364569 0.49383773 0.49403082 0.49422494
 0.4944201  0.49461629 0.49481352 0.49501178 0.49521107 0.49541138
 0.49561272 0.49581509 0.49601848 0.49622289 0.49642832 0.49663476
 0.49684223 0.4970507  0.49726019 0.4974707  0.4976822  0.49789472
 0.49810824 0.49832277 0.4985383  0.49875483 0.49897235 0.49919088
 0.4994104  0.49963091 0.49985241 0.5000749  0.50029839 0.50052285
 0.5007483  0.50097474 0.50120215 0.50143055 0.50165992 0.50189026
 0.50212158 0.50235387 0.50258713 0.50282136 0.50305656 0.50329272
 0.50352984 0.50376792 0.50400696 0.50424696 0.50448792 0.50472982
 0.50497268 0.50521649 0.50546125 0.50570695 0.5059536  0.50620119
 0.50644972 0.50669918 0.50694959 0.50720093 0.5074532  0.50770641
 0.50796054 0.5082156  0.50847159 0.5087285  0.50898633 0.50924508
 0.50950475 0.50976533 0.51002683 0.51028925 0.51055257 0.5108168
 0.51108194 0.51134798 0.51161493 0.51188277 0.51215152 0.51242116
 0.5126917  0.51296313 0.51323545 0.51350866 0.51378276 0.51405774
 0.51433361 0.51461036 0.51488799 0.5151665  0.51544589 0.51572615
 0.51600728 0.51628928 0.51657215 0.51685588 0.51714048 0.51742595
 0.51771227 0.51799945 0.51828749 0.51857638 0.51886613 0.51915673
 0.51944818 0.51974047 0.52003361 0.52032759 0.52062242 0.52091808
 0.52121458 0.52151191 0.52181008 0.52210909 0.52240892 0.52270957
 0.52301106 0.52331337 0.5236165  0.52392045 0.52422522 0.5245308
 0.5248372  0.52514441 0.52545243 0.52576126 0.52607089 0.52638133
 0.52669257 0.52700462 0.52731746 0.5276311  0.52794553 0.52826075
 0.52857677 0.52889358 0.52921117 0.52952954 0.5298487  0.53016864
 0.53048936 0.53081086 0.53113313 0.53145618 0.53178    0.53210458
 0.53242994 0.53275606 0.53308294 0.53341059 0.53373899 0.53406815
 0.53439807 0.53472874 0.53506017 0.53539234 0.53572526 0.53605893
 0.53639334 0.5367285  0.53706439 0.53740103 0.5377384  0.5380765
 0.53841534 0.53875491 0.53909521 0.53943623 0.53977798 0.54012045
 0.54046364 0.54080756 0.54115219 0.54149753 0.54184359 0.54219036
 0.54253784 0.54288603 0.54323492 0.54358452 0.54393482 0.54428582
 0.54463751 0.54498991 0.545343   0.54569678 0.54605125 0.54640641
 0.54676226 0.54711879 0.54747601 0.5478339  0.54819248 0.54855173
 0.54891166 0.54927226 0.54963354 0.54999548 0.5503581  0.55072138
 0.55108532 0.55144992 0.55181519 0.55218111 0.5525477  0.55291493
 0.55328282 0.55365136 0.55402056 0.55439039 0.55476088 0.55513201
 0.55550378 0.55587619 0.55624924 0.55662292 0.55699724 0.55737219
 0.55774778 0.55812399 0.55850083 0.5588783  0.55925639 0.5596351
 0.56001443 0.56039438 0.56077495 0.56115613 0.56153793 0.56192033
 0.56230335 0.56268697 0.5630712  0.56345603 0.56384147 0.56422751
 0.56461414 0.56500137 0.5653892  0.56577762 0.56616663 0.56655623
 0.56694642 0.56733719 0.56772855 0.56812049 0.56851301 0.56890612
 0.5692998  0.56969405 0.57008888 0.57048428 0.57088026 0.5712768
 0.57167391 0.57207158 0.57246982 0.57286862 0.57326798 0.5736679
 0.57406837 0.5744694  0.57487098 0.57527312 0.5756758  0.57607904
 0.57648282 0.57688714 0.57729201 0.57769742 0.57810337 0.57850986
 0.57891689 0.57932445 0.57973254 0.58014117 0.58055032 0.58096
 0.58137021 0.58178095 0.58219221 0.58260399 0.58301629 0.58342911
 0.58384244 0.5842563  0.58467066 0.58508554 0.58550093 0.58591682
 0.58633323 0.58675014 0.58716755 0.58758547 0.58800388 0.5884228
 0.58884221 0.58926212 0.58968253 0.59010343 0.59052482 0.5909467
 0.59136906 0.59179192 0.59221526 0.59263908 0.59306339 0.59348818
 0.59391344 0.59433919 0.59476541 0.5951921  0.59561927 0.59604691
 0.59647502 0.5969036  0.59733264 0.59776215 0.59819213 0.59862257
 0.59905347 0.59948483 0.59991664 0.60034892 0.60078165 0.60121483
 0.60164846 0.60208255 0.60251709 0.60295207 0.6033875  0.60382338
 0.6042597  0.60469646 0.60513366 0.6055713  0.60600938 0.6064479
 0.60688686 0.60732624 0.60776606 0.60820631 0.60864699 0.6090881
 0.60952964 0.6099716  0.61041398 0.61085679 0.61130002 0.61174367
 0.61218774 0.61263223 0.61307713 0.61352245 0.61396818 0.61441432
 0.61486088 0.61530784 0.61575522 0.616203   0.61665118 0.61709977
 0.61754876 0.61799816 0.61844795 0.61889815 0.61934874 0.61979973
 0.62025111 0.62070289 0.62115506 0.62160762 0.62206058 0.62251392
 0.62296765 0.62342177 0.62387627 0.62433116 0.62478643 0.62524208
 0.62569811 0.62615452 0.62661132 0.62706848 0.62752603 0.62798394
 0.62844224 0.6289009  0.62935993 0.62981934 0.63027911 0.63073925
 0.63119976 0.63166064 0.63212187 0.63258347 0.63304544 0.63350776
 0.63397044 0.63443348 0.63489688 0.63536064 0.63582475 0.63628922
 0.63675404 0.63721921 0.63768473 0.6381506  0.63861682 0.63908339
 0.6395503  0.64001756 0.64048517 0.64095311 0.64142141 0.64189004
 0.64235901 0.64282832 0.64329797 0.64376796 0.64423828 0.64470894
 0.64517994 0.64565126 0.64612292 0.64659491 0.64706724 0.64753989
 0.64801286 0.64848617 0.6489598  0.64943376 0.64990804 0.65038265
 0.65085758 0.65133283 0.6518084  0.65228429 0.65276051 0.65323703
 0.65371388 0.65419104 0.65466852 0.65514631 0.65562441 0.65610283
 0.65658156 0.6570606  0.65753995 0.65801961 0.65849958 0.65897986
 0.65946044 0.65994132 0.66042252 0.66090401 0.66138581 0.66186791
 0.66235032 0.66283302 0.66331603 0.66379933 0.66428293 0.66476683
 0.66525103 0.66573552 0.6662203  0.66670539 0.66719076 0.66767643
 0.66816239 0.66864864 0.66913518 0.66962201 0.67010913 0.67059654
 0.67108424 0.67157222 0.67206049 0.67254904 0.67303788 0.67352701
 0.67401641 0.6745061  0.67499607 0.67548633 0.67597686 0.67646767
 0.67695876 0.67745013 0.67794178 0.67843371 0.67892591 0.67941839
 0.67991114 0.68040417 0.68089747 0.68139105 0.68188489 0.68237901
 0.68287341 0.68336807 0.683863   0.6843582  0.68485368 0.68534942
 0.68584542 0.6863417  0.68683824 0.68733505 0.68783212 0.68832946
 0.68882707 0.68932493 0.68982307 0.69032146 0.69082012 0.69131904
 0.69181822 0.69231766 0.69281736 0.69331732 0.69381754 0.69431802
 0.69481875 0.69531975 0.695821   0.69632251 0.69682428 0.6973263
 0.69782858 0.69833111 0.69883389 0.69933693]
t = [1.10075325e+09 1.10075331e+09 1.10075337e+09 1.10075344e+09
 1.10075350e+09 1.10075356e+09 1.10075362e+09 1.10075368e+09
 1.10075375e+09 1.10075381e+09 1.10075387e+09 1.10075393e+09
 1.10075399e+09 1.10075406e+09 1.10075412e+09 1.10075418e+09
 1.10075424e+09 1.10075430e+09 1.10075437e+09 1.10075443e+09
 1.10075449e+09 1.10075455e+09 1.10075461e+09 1.10075468e+09
 1.10075474e+09 1.10075480e+09 1.10075486e+09 1.10075492e+09
 1.10075499e+09 1.10075505e+09 1.10075511e+09 1.10075517e+09
 1.10075523e+09 1.10075530e+09 1.10075536e+09 1.10075542e+09
 1.10075548e+09 1.10075554e+09 1.10075561e+09 1.10075567e+09
 1.10075573e+09 1.10075579e+09 1.10075585e+09 1.10075592e+09
 1.10075598e+09 1.10075604e+09 1.10075610e+09 1.10075616e+09
 1.10075623e+09 1.10075629e+09 1.10075635e+09 1.10075641e+09
 1.10075647e+09 1.10075654e+09 1.10075660e+09 1.10075666e+09
 1.10075672e+09 1.10075678e+09 1.10075685e+09 1.10075691e+09
 1.10075697e+09 1.10075703e+09 1.10075709e+09 1.10075716e+09
 1.10075722e+09 1.10075728e+09 1.10075734e+09 1.10075740e+09
 1.10075747e+09 1.10075753e+09 1.10075759e+09 1.10075765e+09
 1.10075772e+09 1.10075778e+09 1.10075784e+09 1.10075790e+09
 1.10075796e+09 1.10075803e+09 1.10075809e+09 1.10075815e+09
 1.10075821e+09 1.10075827e+09 1.10075834e+09 1.10075840e+09
 1.10075846e+09 1.10075852e+09 1.10075858e+09 1.10075865e+09
 1.10075871e+09 1.10075877e+09 1.10075883e+09 1.10075889e+09
 1.10075896e+09 1.10075902e+09 1.10075908e+09 1.10075914e+09
 1.10075920e+09 1.10075927e+09 1.10075933e+09 1.10075939e+09
 1.10075945e+09 1.10075951e+09 1.10075958e+09 1.10075964e+09
 1.10075970e+09 1.10075976e+09 1.10075982e+09 1.10075989e+09
 1.10075995e+09 1.10076001e+09 1.10076007e+09 1.10076013e+09
 1.10076020e+09 1.10076026e+09 1.10076032e+09 1.10076038e+09
 1.10076044e+09 1.10076051e+09 1.10076057e+09 1.10076063e+09
 1.10076069e+09 1.10076075e+09 1.10076082e+09 1.10076088e+09
 1.10076094e+09 1.10076100e+09 1.10076106e+09 1.10076113e+09
 1.10076119e+09 1.10076125e+09 1.10076131e+09 1.10076137e+09
 1.10076144e+09 1.10076150e+09 1.10076156e+09 1.10076162e+09
 1.10076168e+09 1.10076175e+09 1.10076181e+09 1.10076187e+09
 1.10076193e+09 1.10076199e+09 1.10076206e+09 1.10076212e+09
 1.10076218e+09 1.10076224e+09 1.10076230e+09 1.10076237e+09
 1.10076243e+09 1.10076249e+09 1.10076255e+09 1.10076261e+09
 1.10076268e+09 1.10076274e+09 1.10076280e+09 1.10076286e+09
 1.10076292e+09 1.10076299e+09 1.10076305e+09 1.10076311e+09
 1.10076317e+09 1.10076323e+09 1.10076330e+09 1.10076336e+09
 1.10076342e+09 1.10076348e+09 1.10076354e+09 1.10076361e+09
 1.10076367e+09 1.10076373e+09 1.10076379e+09 1.10076385e+09
 1.10076392e+09 1.10076398e+09 1.10076404e+09 1.10076410e+09
 1.10076416e+09 1.10076423e+09 1.10076429e+09 1.10076435e+09
 1.10076441e+09 1.10076447e+09 1.10076454e+09 1.10076460e+09
 1.10076466e+09 1.10076472e+09 1.10076478e+09 1.10076485e+09
 1.10076491e+09 1.10076497e+09 1.10076503e+09 1.10076509e+09
 1.10076516e+09 1.10076522e+09 1.10076528e+09 1.10076534e+09
 1.10076540e+09 1.10076547e+09 1.10076553e+09 1.10076559e+09
 1.10076565e+09 1.10076571e+09 1.10076578e+09 1.10076584e+09
 1.10076590e+09 1.10076596e+09 1.10076602e+09 1.10076609e+09
 1.10076615e+09 1.10076621e+09 1.10076627e+09 1.10076633e+09
 1.10076640e+09 1.10076646e+09 1.10076652e+09 1.10076658e+09
 1.10076664e+09 1.10076671e+09 1.10076677e+09 1.10076683e+09
 1.10076689e+09 1.10076695e+09 1.10076702e+09 1.10076708e+09
 1.10076714e+09 1.10076720e+09 1.10076726e+09 1.10076733e+09
 1.10076739e+09 1.10076745e+09 1.10076751e+09 1.10076757e+09
 1.10076764e+09 1.10076770e+09 1.10076776e+09 1.10076782e+09
 1.10076789e+09 1.10076795e+09 1.10076801e+09 1.10076807e+09
 1.10076813e+09 1.10076820e+09 1.10076826e+09 1.10076832e+09
 1.10076838e+09 1.10076844e+09 1.10076851e+09 1.10076857e+09
 1.10076863e+09 1.10076869e+09 1.10076875e+09 1.10076882e+09
 1.10076888e+09 1.10076894e+09 1.10076900e+09 1.10076906e+09
 1.10076913e+09 1.10076919e+09 1.10076925e+09 1.10076931e+09
 1.10076937e+09 1.10076944e+09 1.10076950e+09 1.10076956e+09
 1.10076962e+09 1.10076968e+09 1.10076975e+09 1.10076981e+09
 1.10076987e+09 1.10076993e+09 1.10076999e+09 1.10077006e+09
 1.10077012e+09 1.10077018e+09 1.10077024e+09 1.10077030e+09
 1.10077037e+09 1.10077043e+09 1.10077049e+09 1.10077055e+09
 1.10077061e+09 1.10077068e+09 1.10077074e+09 1.10077080e+09
 1.10077086e+09 1.10077092e+09 1.10077099e+09 1.10077105e+09
 1.10077111e+09 1.10077117e+09 1.10077123e+09 1.10077130e+09
 1.10077136e+09 1.10077142e+09 1.10077148e+09 1.10077154e+09
 1.10077161e+09 1.10077167e+09 1.10077173e+09 1.10077179e+09
 1.10077185e+09 1.10077192e+09 1.10077198e+09 1.10077204e+09
 1.10077210e+09 1.10077216e+09 1.10077223e+09 1.10077229e+09
 1.10077235e+09 1.10077241e+09 1.10077247e+09 1.10077254e+09
 1.10077260e+09 1.10077266e+09 1.10077272e+09 1.10077278e+09
 1.10077285e+09 1.10077291e+09 1.10077297e+09 1.10077303e+09
 1.10077309e+09 1.10077316e+09 1.10077322e+09 1.10077328e+09
 1.10077334e+09 1.10077340e+09 1.10077347e+09 1.10077353e+09
 1.10077359e+09 1.10077365e+09 1.10077371e+09 1.10077378e+09
 1.10077384e+09 1.10077390e+09 1.10077396e+09 1.10077402e+09
 1.10077409e+09 1.10077415e+09 1.10077421e+09 1.10077427e+09
 1.10077433e+09 1.10077440e+09 1.10077446e+09 1.10077452e+09
 1.10077458e+09 1.10077464e+09 1.10077471e+09 1.10077477e+09
 1.10077483e+09 1.10077489e+09 1.10077495e+09 1.10077502e+09
 1.10077508e+09 1.10077514e+09 1.10077520e+09 1.10077526e+09
 1.10077533e+09 1.10077539e+09 1.10077545e+09 1.10077551e+09
 1.10077557e+09 1.10077564e+09 1.10077570e+09 1.10077576e+09
 1.10077582e+09 1.10077588e+09 1.10077595e+09 1.10077601e+09
 1.10077607e+09 1.10077613e+09 1.10077619e+09 1.10077626e+09
 1.10077632e+09 1.10077638e+09 1.10077644e+09 1.10077650e+09
 1.10077657e+09 1.10077663e+09 1.10077669e+09 1.10077675e+09
 1.10077681e+09 1.10077688e+09 1.10077694e+09 1.10077700e+09
 1.10077706e+09 1.10077712e+09 1.10077719e+09 1.10077725e+09
 1.10077731e+09 1.10077737e+09 1.10077743e+09 1.10077750e+09
 1.10077756e+09 1.10077762e+09 1.10077768e+09 1.10077774e+09
 1.10077781e+09 1.10077787e+09 1.10077793e+09 1.10077799e+09
 1.10077805e+09 1.10077812e+09 1.10077818e+09 1.10077824e+09
 1.10077830e+09 1.10077837e+09 1.10077843e+09 1.10077849e+09
 1.10077855e+09 1.10077861e+09 1.10077868e+09 1.10077874e+09
 1.10077880e+09 1.10077886e+09 1.10077892e+09 1.10077899e+09
 1.10077905e+09 1.10077911e+09 1.10077917e+09 1.10077923e+09
 1.10077930e+09 1.10077936e+09 1.10077942e+09 1.10077948e+09
 1.10077954e+09 1.10077961e+09 1.10077967e+09 1.10077973e+09
 1.10077979e+09 1.10077985e+09 1.10077992e+09 1.10077998e+09
 1.10078004e+09 1.10078010e+09 1.10078016e+09 1.10078023e+09
 1.10078029e+09 1.10078035e+09 1.10078041e+09 1.10078047e+09
 1.10078054e+09 1.10078060e+09 1.10078066e+09 1.10078072e+09
 1.10078078e+09 1.10078085e+09 1.10078091e+09 1.10078097e+09
 1.10078103e+09 1.10078109e+09 1.10078116e+09 1.10078122e+09
 1.10078128e+09 1.10078134e+09 1.10078140e+09 1.10078147e+09
 1.10078153e+09 1.10078159e+09 1.10078165e+09 1.10078171e+09
 1.10078178e+09 1.10078184e+09 1.10078190e+09 1.10078196e+09
 1.10078202e+09 1.10078209e+09 1.10078215e+09 1.10078221e+09
 1.10078227e+09 1.10078233e+09 1.10078240e+09 1.10078246e+09
 1.10078252e+09 1.10078258e+09 1.10078264e+09 1.10078271e+09
 1.10078277e+09 1.10078283e+09 1.10078289e+09 1.10078295e+09
 1.10078302e+09 1.10078308e+09 1.10078314e+09 1.10078320e+09
 1.10078326e+09 1.10078333e+09 1.10078339e+09 1.10078345e+09
 1.10078351e+09 1.10078357e+09 1.10078364e+09 1.10078370e+09
 1.10078376e+09 1.10078382e+09 1.10078388e+09 1.10078395e+09
 1.10078401e+09 1.10078407e+09 1.10078413e+09 1.10078419e+09
 1.10078426e+09 1.10078432e+09 1.10078438e+09 1.10078444e+09
 1.10078450e+09 1.10078457e+09 1.10078463e+09 1.10078469e+09
 1.10078475e+09 1.10078481e+09 1.10078488e+09 1.10078494e+09
 1.10078500e+09 1.10078506e+09 1.10078512e+09 1.10078519e+09
 1.10078525e+09 1.10078531e+09 1.10078537e+09 1.10078543e+09
 1.10078550e+09 1.10078556e+09 1.10078562e+09 1.10078568e+09
 1.10078574e+09 1.10078581e+09 1.10078587e+09 1.10078593e+09
 1.10078599e+09 1.10078605e+09 1.10078612e+09 1.10078618e+09
 1.10078624e+09 1.10078630e+09 1.10078636e+09 1.10078643e+09
 1.10078649e+09 1.10078655e+09 1.10078661e+09 1.10078667e+09
 1.10078674e+09 1.10078680e+09 1.10078686e+09 1.10078692e+09
 1.10078698e+09 1.10078705e+09 1.10078711e+09 1.10078717e+09
 1.10078723e+09 1.10078729e+09 1.10078736e+09 1.10078742e+09
 1.10078748e+09 1.10078754e+09 1.10078760e+09 1.10078767e+09
 1.10078773e+09 1.10078779e+09 1.10078785e+09 1.10078791e+09
