name =JUICE_ROI_GAN_2_0_05
flyby = ['2034 SEP 28 18:48:51', '2034 SEP 29 18:48:51']
Observation TW = <SpiceCell dtype = 1, length = 0, size = 3200, card = 12, is_set = 1, adjust = 0, init = 1, base = 94725110654112, data = 94725110654160>
Res(t) = [1.20526486 1.2047703  1.20427781 1.20378739 1.20329904 1.20281275
 1.20232853 1.20184637 1.20136628 1.20088825 1.20041228 1.19993838
 1.19946654 1.19899676 1.19852904 1.19806338 1.19759978 1.19713824
 1.19667875 1.19622133 1.19576595 1.19531264 1.19486138 1.19441217
 1.19396501 1.19351991 1.19307686 1.19263586 1.1921969  1.19176
 1.19132515 1.19089234 1.19046158 1.19003286 1.18960619 1.18918156
 1.18875898 1.18833843 1.18791993 1.18750347 1.18708904 1.18667666
 1.18626631 1.185858   1.18545172 1.18504748 1.18464527 1.18424509
 1.18384694 1.18345083 1.18305674 1.18266468 1.18227465 1.18188665
 1.18150067 1.18111671 1.18073478 1.18035487 1.17997698 1.17960111
 1.17922726 1.17885543 1.17848561 1.17811781 1.17775202 1.17738825
 1.17702649 1.17666674 1.17630899 1.17595326 1.17559953 1.17524782
 1.1748981  1.17455039 1.17420468 1.17386097 1.17351927 1.17317956
 1.17284185 1.17250613 1.17217241 1.17184069 1.17151095 1.17118321
 1.17085746 1.1705337  1.17021192 1.16989213 1.16957432 1.1692585
 1.16894466 1.1686328  1.16832292 1.16801502 1.16770909 1.16740514
 1.16710317 1.16680316 1.16650513 1.16620906 1.16591497 1.16562284
 1.16533268 1.16504448 1.16475824 1.16447396 1.16419164 1.16391128
 1.16363288 1.16335643 1.16308194 1.16280939 1.1625388  1.16227016
 1.16200346 1.16173871 1.1614759  1.16121504 1.16095612 1.16069913
 1.16044409 1.16019098 1.1599398  1.15969056 1.15944325 1.15919787
 1.15895442 1.1587129  1.1584733  1.15823562 1.15799987 1.15776603
 1.15753411 1.15730411 1.15707603 1.15684985 1.15662559 1.15640324
 1.1561828  1.15596426 1.15574763 1.1555329  1.15532007 1.15510914
 1.15490011 1.15469297 1.15448773 1.15428438 1.15408292 1.15388335
 1.15368567 1.15348987 1.15329595 1.15310392 1.15291376 1.15272548
 1.15253908 1.15235455 1.15217189 1.1519911  1.15181218 1.15163513
 1.15145994 1.15128662 1.15111515 1.15094554 1.15077779 1.1506119
 1.15044785 1.15028566 1.15012532 1.14996682 1.14981017 1.14965536
 1.14950239 1.14935126 1.14920197 1.14905451 1.14890888 1.14876509
 1.14862312 1.14848299 1.14834467 1.14820818 1.14807351 1.14794066
 1.14780962 1.1476804  1.14755299 1.14742739 1.14730359 1.14718161
 1.14706143 1.14694305 1.14682646 1.14671168 1.14659869 1.1464875
 1.14637809 1.14627048 1.14616465 1.1460606  1.14595834 1.14585786
 1.14575915 1.14566222 1.14556707 1.14547368 1.14538207 1.14529222
 1.14520413 1.14511781 1.14503325 1.14495045 1.1448694  1.1447901
 1.14471256 1.14463676 1.14456271 1.1444904  1.14441984 1.14435102
 1.14428393 1.14421858 1.14415496 1.14409307 1.14403291 1.14397447
 1.14391776 1.14386276 1.14380949 1.14375793 1.14370809 1.14365996
 1.14361353 1.14356881 1.1435258  1.14348449 1.14344488 1.14340696
 1.14337074 1.14333622 1.14330338 1.14327223 1.14324276 1.14321498
 1.14318887 1.14316445 1.14314169 1.14312061 1.14310121 1.14308346
 1.14306739 1.14305297 1.14304022 1.14302913 1.14301969 1.1430119
 1.14300576 1.14300127 1.14299842 1.14299722 1.14299766 1.14299973
 1.14300344 1.14300879 1.14301576 1.14302436 1.14303458 1.14304643
 1.14305989 1.14307497 1.14309167 1.14310998 1.1431299  1.14315142
 1.14317455 1.14319928 1.14322561 1.14325354 1.14328305 1.14331416
 1.14334686 1.14338115 1.14341701 1.14345446 1.14349348 1.14353408
 1.14357626 1.14362    1.14366531 1.14371218 1.14376062 1.14381061
 1.14386216 1.14391527 1.14396992 1.14402613 1.14408388 1.14414317
 1.144204   1.14426637 1.14433028 1.14439571 1.14446268 1.14453117
 1.14460119 1.14467273 1.14474579 1.14482036 1.14489644 1.14497404
 1.14505314 1.14513375 1.14521586 1.14529947 1.14538458 1.14547117
 1.14555926 1.14564884 1.14573991 1.14583245 1.14592648 1.14602198
 1.14611896 1.14621741 1.14631732 1.14641871 1.14652155 1.14662586
 1.14673162 1.14683884 1.14694751 1.14705763 1.14716919 1.1472822
 1.14739665 1.14751254 1.14762986 1.14774861 1.14786879 1.1479904
 1.14811343 1.14823788 1.14836375 1.14849104 1.14861973 1.14874984
 1.14888135 1.14901426 1.14914858 1.14928429 1.1494214  1.1495599
 1.14969979 1.14984107 1.14998372 1.15012776 1.15027318 1.15041997
 1.15056813 1.15071766 1.15086856 1.15102082 1.15117444 1.15132942
 1.15148575 1.15164343 1.15180247 1.15196284 1.15212456 1.15228762
 1.15245202 1.15261775 1.15278481 1.1529532  1.15312292 1.15329395
 1.15346631 1.15363998 1.15381497 1.15399127 1.15416887 1.15434778
 1.15452799 1.1547095  1.15489231 1.1550764  1.15526179 1.15544847
 1.15563643 1.15582567 1.15601618 1.15620798 1.15640104 1.15659538
 1.15679098 1.15698785 1.15718597 1.15738535 1.15758599 1.15778788
 1.15799102 1.1581954  1.15840103 1.15860789 1.158816   1.15902533
 1.1592359  1.15944769 1.15966071 1.15987496 1.16009042 1.16030709
 1.16052498 1.16074408 1.16096439 1.1611859  1.16140861 1.16163252
 1.16185763 1.16208393 1.16231141 1.16254009 1.16276994 1.16300098
 1.1632332  1.16346658 1.16370114 1.16393687 1.16417377 1.16441182
 1.16465104 1.16489141 1.16513294 1.16537561 1.16561944 1.16586441
 1.16611052 1.16635777 1.16660615 1.16685567 1.16710631 1.16735809
 1.16761099 1.167865   1.16812014 1.16837639 1.16863375 1.16889222
 1.1691518  1.16941248 1.16967426 1.16993714 1.17020111 1.17046617
 1.17073232 1.17099956 1.17126787 1.17153727 1.17180774 1.17207929
 1.1723519  1.17262559 1.17290033 1.17317614 1.17345301 1.17373093
 1.1740099  1.17428993 1.174571   1.17485311 1.17513626 1.17542045
 1.17570568 1.17599194 1.17627922 1.17656753 1.17685687 1.17714722
 1.17743859 1.17773098 1.17802437 1.17831878 1.17861419 1.1789106
 1.17920801 1.17950641 1.17980581 1.1801062  1.18040758 1.18070994
 1.18101328 1.1813176  1.18162289 1.18192916 1.1822364  1.1825446
 1.18285377 1.1831639  1.18347499 1.18378703 1.18410002 1.18441397
 1.18472885 1.18504469 1.18536146 1.18567917 1.18599781 1.18631739
 1.18663789 1.18695932 1.18728167 1.18760495 1.18792914 1.18825424
 1.18858025 1.18890718 1.189235   1.18956373 1.18989336 1.19022389
 1.19055531 1.19088762 1.19122082 1.1915549  1.19188987 1.19222571
 1.19256244 1.19290003 1.1932385  1.19357783 1.19391803 1.19425909
 1.19460101 1.19494378 1.19528741 1.19563189 1.19597722 1.19632339
 1.1966704  1.19701825 1.19736694 1.19771646 1.19806682 1.198418
 1.19877    1.19912283 1.19947647 1.19983093 1.20018621 1.2005423
 1.20089919 1.20125689 1.20161539 1.20197469 1.20233478 1.20269567
 1.20305736 1.20341982 1.20378308 1.20414711 1.20451193 1.20487752
 1.20524389 1.20561103 1.20597893 1.2063476  1.20671704 1.20708723
 1.20745818 1.20782989 1.20820235 1.20857555 1.20894951 1.2093242
 1.20969964 1.21007581 1.21045272 1.21083036 1.21120873 1.21158783
 1.21196765 1.2123482  1.21272946 1.21311143 1.21349412 1.21387752
 1.21426163 1.21464645 1.21503196 1.21541817 1.21580509 1.21619269
 1.21658099 1.21696997 1.21735964 1.21775    1.21814103 1.21853274
 1.21892513 1.21931819 1.21971192 1.22010631 1.22050137 1.22089709
 1.22129347 1.22169051 1.2220882  1.22248654 1.22288553 1.22328516
 1.22368544 1.22408636 1.22448792 1.22489011 1.22529293 1.22569638
 1.22610046 1.22650517 1.22691049 1.22731644 1.227723   1.22813018
 1.22853796 1.22894636 1.22935536 1.22976497 1.23017517 1.23058598
 1.23099738 1.23140937 1.23182196 1.23223513 1.23264889 1.23306323
 1.23347815 1.23389364 1.23430972 1.23472636 1.23514358 1.23556136
 1.23597971 1.23639862 1.23681809 1.23723812 1.2376587  1.23807984
 1.23850152 1.23892375 1.23934653 1.23976985 1.24019371 1.2406181
 1.24104303 1.24146849 1.24189448 1.242321   1.24274805 1.24317561
 1.2436037  1.2440323  1.24446141 1.24489104 1.24532118 1.24575183
 1.24618298 1.24661463 1.24704679 1.24747944 1.24791259 1.24834622
 1.24878035 1.24921497 1.24965007 1.25008566 1.25052172 1.25095827
 1.25139529 1.25183278 1.25227074 1.25270918 1.25314808 1.25358744
 1.25402726 1.25446754 1.25490828 1.25534948 1.25579112 1.25623322
 1.25667576 1.25711875 1.25756218 1.25800605 1.25845035 1.2588951
 1.25934027 1.25978588 1.26023191 1.26067837 1.26112526 1.26157256
 1.26202029 1.26246843 1.26291699 1.26336596 1.26381534 1.26426512
 1.26471532 1.26516591 1.26561691 1.2660683  1.26652009 1.26697228
 1.26742485 1.26787782 1.26833118 1.26878491 1.26923904 1.26969354
 1.27014842 1.27060368 1.27105931 1.27151531 1.27197168 1.27242842
 1.27288552 1.27334299 1.27380082 1.27425901 1.27471755 1.27517644
 1.27563569 1.27609529 1.27655524 1.27701553 1.27747616 1.27793714
 1.27839845 1.27886011 1.27932209 1.27978441 1.28024706 1.28071004
 1.28117334 1.28163697 1.28210092 1.28256519 1.28302977 1.28349468
 1.28395989 1.28442542 1.28489126 1.2853574  1.28582385 1.2862906
 1.28675765 1.28722501 1.28769265 1.2881606  1.28862884 1.28909736
 1.28956618 1.29003528 1.29050467 1.29097434 1.29144429 1.29191452
 1.29238502 1.2928558  1.29332685 1.29379817 1.29426977 1.29474162
 1.29521374 1.29568613 1.29615877 1.29663168 1.29710484 1.29757825
 1.29805192 1.29852584 1.299      1.29947442 1.29994908 1.30042398
 1.30089912 1.3013745  1.30185012 1.30232597 1.30280206 1.30327838
 1.30375492 1.3042317  1.3047087  1.30518592 1.30566337 1.30614104
 1.30661892 1.30709702 1.30757534 1.30805387 1.3085326  1.30901155
 1.3094907  1.30997006 1.31044963 1.31092939 1.31140935 1.31188951
 1.31236987 1.31285042 1.31333116 1.3138121  1.31429322 1.31477453
 1.31525602 1.3157377  1.31621956 1.3167016  1.31718382 1.31766621
 1.31814878 1.31863152 1.31911443 1.31959751 1.32008076 1.32056417
 1.32104775 1.32153148 1.32201538 1.32249944 1.32298366 1.32346803
 1.32395255 1.32443723 1.32492205 1.32540703 1.32589215 1.32637741
 1.32686282 1.32734837 1.32783406 1.32831989 1.32880586 1.32929196
 1.32977819 1.33026456 1.33075106 1.33123768 1.33172443 1.33221131
 1.33269831 1.33318543 1.33367267 1.33416003 1.33464751 1.3351351
 1.33562281 1.33611063 1.33659856 1.3370866  1.33757474 1.338063
 1.33855135 1.33903981 1.33952837 1.34001703 1.34050579 1.34099465
 1.34148359 1.34197264 1.34246177 1.342951   1.34344031 1.34392971
 1.3444192  1.34490877 1.34539843 1.34588816 1.34637798 1.34686787
 1.34735784 1.34784789 1.34833801 1.3488282  1.34931846 1.34980879
 1.35029919 1.35078966 1.35128019 1.35177079 1.35226144 1.35275216
 1.35324294 1.35373377 1.35422467 1.35471561 1.35520661 1.35569766
 1.35618877 1.35667992 1.35717112 1.35766237 1.35815366 1.35864499
 1.35913637 1.35962779 1.36011925 1.36061075 1.36110228 1.36159385
 1.36208545 1.36257709 1.36306876 1.36356046 1.36405219 1.36454394
 1.36503572 1.36552753 1.36601936 1.36651121 1.36700308 1.36749497
 1.36798688 1.36847881 1.36897076 1.36946271 1.36995468 1.37044667
 1.37093866 1.37143066 1.37192268 1.37241469 1.37290672 1.37339875
 1.37389078 1.37438281 1.37487485 1.37536688 1.37585891 1.37635094
 1.37684296 1.37733498 1.37782699 1.378319   1.37881099 1.37930298
 1.37979495 1.38028691 1.38077886 1.38127079 1.38176271 1.38225461
 1.38274649 1.38323835 1.38373019 1.38422201 1.3847138  1.38520557
 1.38569732 1.38618904 1.38668073 1.38717239 1.38766402 1.38815563
 1.3886472  1.38913873 1.38963023 1.3901217  1.39061313 1.39110452
 1.39159588 1.39208719 1.39257847 1.3930697  1.39356089 1.39405203
 1.39454313 1.39503419 1.39552519 1.39601615 1.39650706 1.39699792
 1.39748873 1.39797948 1.39847019 1.39896084 1.39945143 1.39994196
 1.40043244 1.40092286 1.40141323 1.40190353 1.40239377 1.40288394
 1.40337406 1.40386411 1.40435409 1.40484401]
t = [1.09638195e+09 1.09638201e+09 1.09638207e+09 1.09638213e+09
 1.09638219e+09 1.09638224e+09 1.09638230e+09 1.09638236e+09
 1.09638242e+09 1.09638248e+09 1.09638254e+09 1.09638260e+09
 1.09638265e+09 1.09638271e+09 1.09638277e+09 1.09638283e+09
 1.09638289e+09 1.09638295e+09 1.09638301e+09 1.09638307e+09
 1.09638312e+09 1.09638318e+09 1.09638324e+09 1.09638330e+09
 1.09638336e+09 1.09638342e+09 1.09638348e+09 1.09638354e+09
 1.09638359e+09 1.09638365e+09 1.09638371e+09 1.09638377e+09
 1.09638383e+09 1.09638389e+09 1.09638395e+09 1.09638400e+09
 1.09638406e+09 1.09638412e+09 1.09638418e+09 1.09638424e+09
 1.09638430e+09 1.09638436e+09 1.09638442e+09 1.09638447e+09
 1.09638453e+09 1.09638459e+09 1.09638465e+09 1.09638471e+09
 1.09638477e+09 1.09638483e+09 1.09638489e+09 1.09638494e+09
 1.09638500e+09 1.09638506e+09 1.09638512e+09 1.09638518e+09
 1.09638524e+09 1.09638530e+09 1.09638536e+09 1.09638541e+09
 1.09638547e+09 1.09638553e+09 1.09638559e+09 1.09638565e+09
 1.09638571e+09 1.09638577e+09 1.09638582e+09 1.09638588e+09
 1.09638594e+09 1.09638600e+09 1.09638606e+09 1.09638612e+09
 1.09638618e+09 1.09638624e+09 1.09638629e+09 1.09638635e+09
 1.09638641e+09 1.09638647e+09 1.09638653e+09 1.09638659e+09
 1.09638665e+09 1.09638671e+09 1.09638676e+09 1.09638682e+09
 1.09638688e+09 1.09638694e+09 1.09638700e+09 1.09638706e+09
 1.09638712e+09 1.09638718e+09 1.09638723e+09 1.09638729e+09
 1.09638735e+09 1.09638741e+09 1.09638747e+09 1.09638753e+09
 1.09638759e+09 1.09638764e+09 1.09638770e+09 1.09638776e+09
 1.09638782e+09 1.09638788e+09 1.09638794e+09 1.09638800e+09
 1.09638806e+09 1.09638811e+09 1.09638817e+09 1.09638823e+09
 1.09638829e+09 1.09638835e+09 1.09638841e+09 1.09638847e+09
 1.09638853e+09 1.09638858e+09 1.09638864e+09 1.09638870e+09
 1.09638876e+09 1.09638882e+09 1.09638888e+09 1.09638894e+09
 1.09638900e+09 1.09638905e+09 1.09638911e+09 1.09638917e+09
 1.09638923e+09 1.09638929e+09 1.09638935e+09 1.09638941e+09
 1.09638946e+09 1.09638952e+09 1.09638958e+09 1.09638964e+09
 1.09638970e+09 1.09638976e+09 1.09638982e+09 1.09638988e+09
 1.09638993e+09 1.09638999e+09 1.09639005e+09 1.09639011e+09
 1.09639017e+09 1.09639023e+09 1.09639029e+09 1.09639035e+09
 1.09639040e+09 1.09639046e+09 1.09639052e+09 1.09639058e+09
 1.09639064e+09 1.09639070e+09 1.09639076e+09 1.09639082e+09
 1.09639087e+09 1.09639093e+09 1.09639099e+09 1.09639105e+09
 1.09639111e+09 1.09639117e+09 1.09639123e+09 1.09639128e+09
 1.09639134e+09 1.09639140e+09 1.09639146e+09 1.09639152e+09
 1.09639158e+09 1.09639164e+09 1.09639170e+09 1.09639175e+09
 1.09639181e+09 1.09639187e+09 1.09639193e+09 1.09639199e+09
 1.09639205e+09 1.09639211e+09 1.09639217e+09 1.09639222e+09
 1.09639228e+09 1.09639234e+09 1.09639240e+09 1.09639246e+09
 1.09639252e+09 1.09639258e+09 1.09639264e+09 1.09639269e+09
 1.09639275e+09 1.09639281e+09 1.09639287e+09 1.09639293e+09
 1.09639299e+09 1.09639305e+09 1.09639310e+09 1.09639316e+09
 1.09639322e+09 1.09639328e+09 1.09639334e+09 1.09639340e+09
 1.09639346e+09 1.09639352e+09 1.09639357e+09 1.09639363e+09
 1.09639369e+09 1.09639375e+09 1.09639381e+09 1.09639387e+09
 1.09639393e+09 1.09639399e+09 1.09639404e+09 1.09639410e+09
 1.09639416e+09 1.09639422e+09 1.09639428e+09 1.09639434e+09
 1.09639440e+09 1.09639446e+09 1.09639451e+09 1.09639457e+09
 1.09639463e+09 1.09639469e+09 1.09639475e+09 1.09639481e+09
 1.09639487e+09 1.09639492e+09 1.09639498e+09 1.09639504e+09
 1.09639510e+09 1.09639516e+09 1.09639522e+09 1.09639528e+09
 1.09639534e+09 1.09639539e+09 1.09639545e+09 1.09639551e+09
 1.09639557e+09 1.09639563e+09 1.09639569e+09 1.09639575e+09
 1.09639581e+09 1.09639586e+09 1.09639592e+09 1.09639598e+09
 1.09639604e+09 1.09639610e+09 1.09639616e+09 1.09639622e+09
 1.09639628e+09 1.09639633e+09 1.09639639e+09 1.09639645e+09
 1.09639651e+09 1.09639657e+09 1.09639663e+09 1.09639669e+09
 1.09639674e+09 1.09639680e+09 1.09639686e+09 1.09639692e+09
 1.09639698e+09 1.09639704e+09 1.09639710e+09 1.09639716e+09
 1.09639721e+09 1.09639727e+09 1.09639733e+09 1.09639739e+09
 1.09639745e+09 1.09639751e+09 1.09639757e+09 1.09639763e+09
 1.09639768e+09 1.09639774e+09 1.09639780e+09 1.09639786e+09
 1.09639792e+09 1.09639798e+09 1.09639804e+09 1.09639810e+09
 1.09639815e+09 1.09639821e+09 1.09639827e+09 1.09639833e+09
 1.09639839e+09 1.09639845e+09 1.09639851e+09 1.09639856e+09
 1.09639862e+09 1.09639868e+09 1.09639874e+09 1.09639880e+09
 1.09639886e+09 1.09639892e+09 1.09639898e+09 1.09639903e+09
 1.09639909e+09 1.09639915e+09 1.09639921e+09 1.09639927e+09
 1.09639933e+09 1.09639939e+09 1.09639945e+09 1.09639950e+09
 1.09639956e+09 1.09639962e+09 1.09639968e+09 1.09639974e+09
 1.09639980e+09 1.09639986e+09 1.09639992e+09 1.09639997e+09
 1.09640003e+09 1.09640009e+09 1.09640015e+09 1.09640021e+09
 1.09640027e+09 1.09640033e+09 1.09640038e+09 1.09640044e+09
 1.09640050e+09 1.09640056e+09 1.09640062e+09 1.09640068e+09
 1.09640074e+09 1.09640080e+09 1.09640085e+09 1.09640091e+09
 1.09640097e+09 1.09640103e+09 1.09640109e+09 1.09640115e+09
 1.09640121e+09 1.09640127e+09 1.09640132e+09 1.09640138e+09
 1.09640144e+09 1.09640150e+09 1.09640156e+09 1.09640162e+09
 1.09640168e+09 1.09640174e+09 1.09640179e+09 1.09640185e+09
 1.09640191e+09 1.09640197e+09 1.09640203e+09 1.09640209e+09
 1.09640215e+09 1.09640220e+09 1.09640226e+09 1.09640232e+09
 1.09640238e+09 1.09640244e+09 1.09640250e+09 1.09640256e+09
 1.09640262e+09 1.09640267e+09 1.09640273e+09 1.09640279e+09
 1.09640285e+09 1.09640291e+09 1.09640297e+09 1.09640303e+09
 1.09640309e+09 1.09640314e+09 1.09640320e+09 1.09640326e+09
 1.09640332e+09 1.09640338e+09 1.09640344e+09 1.09640350e+09
 1.09640355e+09 1.09640361e+09 1.09640367e+09 1.09640373e+09
 1.09640379e+09 1.09640385e+09 1.09640391e+09 1.09640397e+09
 1.09640402e+09 1.09640408e+09 1.09640414e+09 1.09640420e+09
 1.09640426e+09 1.09640432e+09 1.09640438e+09 1.09640444e+09
 1.09640449e+09 1.09640455e+09 1.09640461e+09 1.09640467e+09
 1.09640473e+09 1.09640479e+09 1.09640485e+09 1.09640491e+09
 1.09640496e+09 1.09640502e+09 1.09640508e+09 1.09640514e+09
 1.09640520e+09 1.09640526e+09 1.09640532e+09 1.09640537e+09
 1.09640543e+09 1.09640549e+09 1.09640555e+09 1.09640561e+09
 1.09640567e+09 1.09640573e+09 1.09640579e+09 1.09640584e+09
 1.09640590e+09 1.09640596e+09 1.09640602e+09 1.09640608e+09
 1.09640614e+09 1.09640620e+09 1.09640626e+09 1.09640631e+09
 1.09640637e+09 1.09640643e+09 1.09640649e+09 1.09640655e+09
 1.09640661e+09 1.09640667e+09 1.09640673e+09 1.09640678e+09
 1.09640684e+09 1.09640690e+09 1.09640696e+09 1.09640702e+09
 1.09640708e+09 1.09640714e+09 1.09640719e+09 1.09640725e+09
 1.09640731e+09 1.09640737e+09 1.09640743e+09 1.09640749e+09
 1.09640755e+09 1.09640761e+09 1.09640766e+09 1.09640772e+09
 1.09640778e+09 1.09640784e+09 1.09640790e+09 1.09640796e+09
 1.09640802e+09 1.09640808e+09 1.09640813e+09 1.09640819e+09
 1.09640825e+09 1.09640831e+09 1.09640837e+09 1.09640843e+09
 1.09640849e+09 1.09640855e+09 1.09640860e+09 1.09640866e+09
 1.09640872e+09 1.09640878e+09 1.09640884e+09 1.09640890e+09
 1.09640896e+09 1.09640901e+09 1.09640907e+09 1.09640913e+09
 1.09640919e+09 1.09640925e+09 1.09640931e+09 1.09640937e+09
 1.09640943e+09 1.09640948e+09 1.09640954e+09 1.09640960e+09
 1.09640966e+09 1.09640972e+09 1.09640978e+09 1.09640984e+09
 1.09640990e+09 1.09640995e+09 1.09641001e+09 1.09641007e+09
 1.09641013e+09 1.09641019e+09 1.09641025e+09 1.09641031e+09
 1.09641037e+09 1.09641042e+09 1.09641048e+09 1.09641054e+09
 1.09641060e+09 1.09641066e+09 1.09641072e+09 1.09641078e+09
 1.09641083e+09 1.09641089e+09 1.09641095e+09 1.09641101e+09
 1.09641107e+09 1.09641113e+09 1.09641119e+09 1.09641125e+09
 1.09641130e+09 1.09641136e+09 1.09641142e+09 1.09641148e+09
 1.09641154e+09 1.09641160e+09 1.09641166e+09 1.09641172e+09
 1.09641177e+09 1.09641183e+09 1.09641189e+09 1.09641195e+09
 1.09641201e+09 1.09641207e+09 1.09641213e+09 1.09641219e+09
 1.09641224e+09 1.09641230e+09 1.09641236e+09 1.09641242e+09
 1.09641248e+09 1.09641254e+09 1.09641260e+09 1.09641265e+09
 1.09641271e+09 1.09641277e+09 1.09641283e+09 1.09641289e+09
 1.09641295e+09 1.09641301e+09 1.09641307e+09 1.09641312e+09
 1.09641318e+09 1.09641324e+09 1.09641330e+09 1.09641336e+09
 1.09641342e+09 1.09641348e+09 1.09641354e+09 1.09641359e+09
 1.09641365e+09 1.09641371e+09 1.09641377e+09 1.09641383e+09
 1.09641389e+09 1.09641395e+09 1.09641401e+09 1.09641406e+09
 1.09641412e+09 1.09641418e+09 1.09641424e+09 1.09641430e+09
 1.09641436e+09 1.09641442e+09 1.09641447e+09 1.09641453e+09
 1.09641459e+09 1.09641465e+09 1.09641471e+09 1.09641477e+09
 1.09641483e+09 1.09641489e+09 1.09641494e+09 1.09641500e+09
