name =JUICE_ROI_GAN_4_2_04
flyby = ['2034 SEP 07 06:03:51', '2034 SEP 08 06:03:51']
Observation TW = <SpiceCell dtype = 1, length = 0, size = 3400, card = 14, is_set = 1, adjust = 0, init = 1, base = 94726014130240, data = 94726014130288>
Res(t) = [1.75319848 1.75070301 1.74821089 1.74572213 1.74323674 1.74075472
 1.73827609 1.73580085 1.73332901 1.73086056 1.72839553 1.72593391
 1.72347572 1.72102096 1.71856963 1.71612175 1.71367732 1.71123635
 1.70879884 1.7063648  1.70393425 1.70150717 1.6990836  1.69666352
 1.69424694 1.69183388 1.68942435 1.68701834 1.68461586 1.68221693
 1.67982155 1.67742972 1.67504146 1.67265676 1.67027565 1.66789812
 1.66552418 1.66315385 1.66078712 1.658424   1.6560645  1.65370864
 1.65135641 1.64900782 1.64666288 1.6443216  1.64198399 1.63965004
 1.63731978 1.63499321 1.63267033 1.63035115 1.62803568 1.62572392
 1.62341589 1.6211116  1.61881104 1.61651422 1.61422116 1.61193187
 1.60964634 1.60736458 1.60508661 1.60281243 1.60054205 1.59827548
 1.59601272 1.59375378 1.59149867 1.58924739 1.58699996 1.58475638
 1.58251666 1.5802808  1.57804882 1.57582072 1.57359651 1.57137619
 1.56915978 1.56694728 1.5647387  1.56253405 1.56033333 1.55813655
 1.55594372 1.55375485 1.55156994 1.54938901 1.54721205 1.54503909
 1.54287011 1.54070514 1.53854418 1.53638724 1.53423433 1.53208544
 1.5299406  1.52779981 1.52566307 1.52353039 1.52140179 1.51927726
 1.51715682 1.51504048 1.51292823 1.5108201  1.50871608 1.50661619
 1.50452042 1.5024288  1.50034132 1.498258   1.49617884 1.49410385
 1.49203303 1.48996641 1.48790397 1.48584573 1.4837917  1.48174188
 1.47969629 1.47765493 1.4756178  1.47358492 1.47155629 1.46953192
 1.46751182 1.46549599 1.46348444 1.46147719 1.45947423 1.45747557
 1.45548123 1.4534912  1.45150551 1.44952414 1.44754712 1.44557445
 1.44360613 1.44164217 1.43968259 1.43772739 1.43577657 1.43383014
 1.43188811 1.42995049 1.42801728 1.4260885  1.42416414 1.42224422
 1.42032874 1.41841772 1.41651115 1.41460904 1.41271141 1.41081825
 1.40892958 1.40704541 1.40516573 1.40329056 1.40141991 1.39955377
 1.39769217 1.3958351  1.39398257 1.39213459 1.39029116 1.3884523
 1.38661801 1.38478829 1.38296316 1.38114261 1.37932667 1.37751532
 1.37570859 1.37390647 1.37210898 1.37031612 1.36852789 1.36674431
 1.36496537 1.36319109 1.36142148 1.35965653 1.35789627 1.35614068
 1.35438978 1.35264358 1.35090208 1.34916529 1.34743321 1.34570585
 1.34398322 1.34226532 1.34055216 1.33884375 1.33714008 1.33544118
 1.33374704 1.33205767 1.33037307 1.32869326 1.32701823 1.325348
 1.32368257 1.32202194 1.32036613 1.31871513 1.31706895 1.3154276
 1.31379109 1.31215942 1.31053259 1.30891062 1.3072935  1.30568124
 1.30407385 1.30247134 1.3008737  1.29928095 1.29769308 1.29611011
 1.29453205 1.29295888 1.29139063 1.28982729 1.28826888 1.28671539
 1.28516683 1.2836232  1.28208452 1.28055079 1.279022   1.27749817
 1.2759793  1.2744654  1.27295646 1.2714525  1.26995352 1.26845952
 1.26697052 1.2654865  1.26400748 1.26253347 1.26106446 1.25960046
 1.25814147 1.25668751 1.25523857 1.25379466 1.25235578 1.25092193
 1.24949312 1.24806936 1.24665065 1.24523699 1.24382838 1.24242484
 1.24102635 1.23963294 1.23824459 1.23686132 1.23548313 1.23411002
 1.23274199 1.23137905 1.23002121 1.22866846 1.2273208  1.22597825
 1.22464081 1.22330847 1.22198124 1.22065913 1.21934213 1.21803026
 1.21672351 1.21542188 1.21412538 1.21283402 1.21154778 1.21026669
 1.20899073 1.20771992 1.20645425 1.20519373 1.20393835 1.20268813
 1.20144306 1.20020315 1.1989684  1.19773881 1.19651438 1.19529511
 1.19408101 1.19287208 1.19166832 1.19046973 1.18927631 1.18808807
 1.18690501 1.18572712 1.18455442 1.1833869  1.18222456 1.1810674
 1.17991543 1.17876865 1.17762705 1.17649065 1.17535943 1.17423341
 1.17311258 1.17199694 1.1708865  1.16978125 1.1686812  1.16758634
 1.16649668 1.16541222 1.16433295 1.16325889 1.16219002 1.16112635
 1.16006789 1.15901462 1.15796655 1.15692368 1.15588602 1.15485355
 1.15382628 1.15280421 1.15178735 1.15077568 1.14976921 1.14876794
 1.14777187 1.14678099 1.14579532 1.14481484 1.14383956 1.14286947
 1.14190458 1.14094488 1.13999037 1.13904106 1.13809694 1.137158
 1.13622426 1.1352957  1.13437234 1.13345415 1.13254115 1.13163333
 1.1307307  1.12983324 1.12894096 1.12805386 1.12717193 1.12629517
 1.12542359 1.12455717 1.12369593 1.12283984 1.12198892 1.12114316
 1.12030256 1.11946712 1.11863683 1.11781169 1.1169917  1.11617685
 1.11536716 1.1145626  1.11376318 1.1129689  1.11217976 1.11139574
 1.11061685 1.10984309 1.10907445 1.10831092 1.10755252 1.10679922
 1.10605104 1.10530796 1.10456998 1.1038371  1.10310932 1.10238663
 1.10166903 1.10095652 1.10024909 1.09954673 1.09884945 1.09815723
 1.09747009 1.096788   1.09611098 1.095439   1.09477208 1.0941102
 1.09345337 1.09280157 1.0921548  1.09151306 1.09087634 1.09024465
 1.08961796 1.08899629 1.08837962 1.08776796 1.08716128 1.0865596
 1.0859629  1.08537119 1.08478445 1.08420268 1.08362587 1.08305403
 1.08248714 1.0819252  1.0813682  1.08081615 1.08026902 1.07972683
 1.07918955 1.07865719 1.07812975 1.0776072  1.07708956 1.07657681
 1.07606895 1.07556597 1.07506786 1.07457463 1.07408626 1.07360274
 1.07312408 1.07265026 1.07218128 1.07171713 1.07125781 1.0708033
 1.07035361 1.06990873 1.06946864 1.06903335 1.06860285 1.06817712
 1.06775617 1.06733998 1.06692855 1.06652188 1.06611995 1.06572275
 1.06533029 1.06494256 1.06455954 1.06418122 1.06380762 1.0634387
 1.06307448 1.06271493 1.06236006 1.06200985 1.0616643  1.0613234
 1.06098715 1.06065553 1.06032853 1.06000616 1.05968839 1.05937524
 1.05906667 1.0587627  1.05846331 1.05816849 1.05787823 1.05759253
 1.05731138 1.05703477 1.05676269 1.05649513 1.05623209 1.05597356
 1.05571952 1.05546998 1.05522491 1.05498433 1.0547482  1.05451653
 1.05428931 1.05406653 1.05384819 1.05363426 1.05342474 1.05321964
 1.05301892 1.0528226  1.05263065 1.05244307 1.05225985 1.05208099
 1.05190646 1.05173627 1.05157041 1.05140885 1.05125161 1.05109866
 1.05095    1.05080562 1.05066551 1.05052966 1.05039807 1.05027071
 1.05014758 1.05002868 1.04991399 1.04980351 1.04969722 1.04959512
 1.04949719 1.04940343 1.04931382 1.04922837 1.04914705 1.04906985
 1.04899678 1.04892781 1.04886295 1.04880217 1.04874547 1.04869284
 1.04864427 1.04859975 1.04855927 1.04852282 1.04849039 1.04846197
 1.04843755 1.04841712 1.04840067 1.0483882  1.04837968 1.04837511
 1.04837448 1.04837778 1.04838501 1.04839614 1.04841117 1.04843009
 1.04845289 1.04847956 1.04851009 1.04854447 1.04858268 1.04862473
 1.04867059 1.04872026 1.04877373 1.04883098 1.04889201 1.04895681
 1.04902536 1.04909766 1.04917369 1.04925345 1.04933692 1.04942409
 1.04951496 1.04960951 1.04970774 1.04980962 1.04991516 1.05002434
 1.05013715 1.05025358 1.05037361 1.05049725 1.05062448 1.05075528
 1.05088965 1.05102757 1.05116905 1.05131405 1.05146258 1.05161463
 1.05177018 1.05192922 1.05209175 1.05225774 1.0524272  1.05260011
 1.05277645 1.05295623 1.05313942 1.05332602 1.05351602 1.05370941
 1.05390617 1.05410629 1.05430977 1.05451659 1.05472675 1.05494022
 1.05515701 1.0553771  1.05560048 1.05582714 1.05605707 1.05629025
 1.05652669 1.05676635 1.05700925 1.05725536 1.05750467 1.05775718
 1.05801287 1.05827173 1.05853376 1.05879893 1.05906725 1.05933869
 1.05961325 1.05989092 1.06017169 1.06045555 1.06074248 1.06103248
 1.06132553 1.06162162 1.06192075 1.0622229  1.06252807 1.06283623
 1.06314739 1.06346152 1.06377863 1.06409869 1.06442171 1.06474766
 1.06507653 1.06540833 1.06574303 1.06608062 1.0664211  1.06676446
 1.06711067 1.06745975 1.06781166 1.0681664  1.06852397 1.06888435
 1.06924753 1.0696135  1.06998224 1.07035376 1.07072804 1.07110506
 1.07148482 1.07186731 1.07225252 1.07264043 1.07303104 1.07342433
 1.0738203  1.07421893 1.07462022 1.07502415 1.07543072 1.07583991
 1.07625172 1.07666612 1.07708312 1.07750271 1.07792486 1.07834958
 1.07877685 1.07920666 1.079639   1.08007386 1.08051124 1.08095111
 1.08139348 1.08183833 1.08228564 1.08273542 1.08318765 1.08364232
 1.08409942 1.08455894 1.08502088 1.08548521 1.08595193 1.08642103
 1.08689251 1.08736634 1.08784253 1.08832105 1.08880191 1.08928509
 1.08977058 1.09025838 1.09074846 1.09124083 1.09173546 1.09223237
 1.09273152 1.09323292 1.09373655 1.0942424  1.09475047 1.09526075
 1.09577322 1.09628787 1.0968047  1.0973237  1.09784485 1.09836815
 1.09889359 1.09942116 1.09995084 1.10048264 1.10101654 1.10155252
 1.10209059 1.10263073 1.10317293 1.10371719 1.10426349 1.10481183
 1.10536219 1.10591456 1.10646895 1.10702533 1.1075837  1.10814406
 1.10870638 1.10927066 1.1098369  1.11040508 1.1109752  1.11154724
 1.1121212  1.11269706 1.11327483 1.11385448 1.11443602 1.11501942
 1.1156047  1.11619182 1.11678079 1.1173716  1.11796424 1.11855869
 1.11915496 1.11975303 1.12035289 1.12095454 1.12155797 1.12216316
 1.12277011 1.12337881 1.12398926 1.12460143 1.12521534 1.12583096
 1.12644829 1.12706732 1.12768804 1.12831044 1.12893452 1.12956027
 1.13018768 1.13081673 1.13144743 1.13207976 1.13271372 1.1333493
 1.13398648 1.13462527 1.13526565 1.13590762 1.13655116 1.13719627
 1.13784295 1.13849118 1.13914095 1.13979226 1.1404451  1.14109947
 1.14175535 1.14241273 1.14307162 1.14373199 1.14439385 1.14505719
 1.14572199 1.14638825 1.14705597 1.14772513 1.14839573 1.14906776
 1.14974122 1.15041608 1.15109236 1.15177004 1.15244911 1.15312956
 1.1538114  1.1544946  1.15517917 1.1558651  1.15655237 1.15724099
 1.15793094 1.15862222 1.15931482 1.16000874 1.16070396 1.16140048
 1.1620983  1.16279739 1.16349777 1.16419942 1.16490233 1.16560651
 1.16631193 1.1670186  1.1677265  1.16843563 1.16914599 1.16985757
 1.17057035 1.17128434 1.17199953 1.17271591 1.17343347 1.17415221
 1.17487212 1.17559319 1.17631542 1.1770388  1.17776333 1.17848899
 1.17921579 1.17994371 1.18067276 1.18140291 1.18213417 1.18286654
 1.18359999 1.18433454 1.18507016 1.18580687 1.18654464 1.18728348
 1.18802337 1.18876431 1.1895063  1.19024933 1.1909934  1.19173849
 1.1924846  1.19323173 1.19397987 1.19472901 1.19547915 1.19623028
 1.1969824  1.1977355  1.19848958 1.19924463 1.20000064 1.20075761
 1.20151553 1.2022744  1.20303421 1.20379496 1.20455663 1.20531924
 1.20608276 1.2068472  1.20761255 1.2083788  1.20914595 1.20991399
 1.21068292 1.21145273 1.21222342 1.21299498 1.21376741 1.2145407
 1.21531485 1.21608985 1.2168657  1.21764239 1.21841991 1.21919827
 1.21997745 1.22075746 1.22153828 1.22231991 1.22310235 1.22388559
 1.22466963 1.22545447 1.22624009 1.22702649 1.22781367 1.22860163
 1.22939035 1.23017984 1.23097009 1.2317611  1.23255286 1.23334536
 1.2341386  1.23493258 1.2357273  1.23652274 1.23731891 1.2381158
 1.2389134  1.23971171 1.24051073 1.24131045 1.24211087 1.24291199
 1.24371379 1.24451628 1.24531946 1.24612331 1.24692783 1.24773302
 1.24853888 1.2493454  1.25015257 1.2509604  1.25176888 1.25257801
 1.25338777 1.25419818 1.25500921 1.25582088 1.25663317 1.25744609
 1.25825963 1.25907378 1.25988854 1.26070391 1.26151988 1.26233646
 1.26315363 1.26397139 1.26478975 1.26560869 1.26642821 1.26724831
 1.26806899 1.26889024 1.26971206 1.27053445 1.2713574  1.2721809
 1.27300497 1.27382958 1.27465475 1.27548046 1.27630671 1.27713351
 1.27796084 1.2787887  1.27961709 1.28044601 1.28127546 1.28210543
 1.28293591 1.28376691 1.28459842 1.28543044 1.28626297 1.287096
 1.28792953 1.28876356 1.28959809 1.2904331  1.29126861 1.2921046
 1.29294108 1.29377804 1.29461547 1.29545339 1.29629177 1.29713063
 1.29796995 1.29880975 1.29965    1.30049071]
t = [1.09449390e+09 1.09449399e+09 1.09449407e+09 1.09449416e+09
 1.09449425e+09 1.09449433e+09 1.09449442e+09 1.09449451e+09
 1.09449459e+09 1.09449468e+09 1.09449477e+09 1.09449485e+09
 1.09449494e+09 1.09449502e+09 1.09449511e+09 1.09449520e+09
 1.09449528e+09 1.09449537e+09 1.09449546e+09 1.09449554e+09
 1.09449563e+09 1.09449572e+09 1.09449580e+09 1.09449589e+09
 1.09449598e+09 1.09449606e+09 1.09449615e+09 1.09449624e+09
 1.09449632e+09 1.09449641e+09 1.09449649e+09 1.09449658e+09
 1.09449667e+09 1.09449675e+09 1.09449684e+09 1.09449693e+09
 1.09449701e+09 1.09449710e+09 1.09449719e+09 1.09449727e+09
 1.09449736e+09 1.09449745e+09 1.09449753e+09 1.09449762e+09
 1.09449771e+09 1.09449779e+09 1.09449788e+09 1.09449797e+09
 1.09449805e+09 1.09449814e+09 1.09449822e+09 1.09449831e+09
 1.09449840e+09 1.09449848e+09 1.09449857e+09 1.09449866e+09
 1.09449874e+09 1.09449883e+09 1.09449892e+09 1.09449900e+09
 1.09449909e+09 1.09449918e+09 1.09449926e+09 1.09449935e+09
 1.09449944e+09 1.09449952e+09 1.09449961e+09 1.09449969e+09
 1.09449978e+09 1.09449987e+09 1.09449995e+09 1.09450004e+09
 1.09450013e+09 1.09450021e+09 1.09450030e+09 1.09450039e+09
 1.09450047e+09 1.09450056e+09 1.09450065e+09 1.09450073e+09
 1.09450082e+09 1.09450091e+09 1.09450099e+09 1.09450108e+09
 1.09450117e+09 1.09450125e+09 1.09450134e+09 1.09450142e+09
 1.09450151e+09 1.09450160e+09 1.09450168e+09 1.09450177e+09
 1.09450186e+09 1.09450194e+09 1.09450203e+09 1.09450212e+09
 1.09450220e+09 1.09450229e+09 1.09450238e+09 1.09450246e+09
 1.09450255e+09 1.09450264e+09 1.09450272e+09 1.09450281e+09
 1.09450289e+09 1.09450298e+09 1.09450307e+09 1.09450315e+09
 1.09450324e+09 1.09450333e+09 1.09450341e+09 1.09450350e+09
 1.09450359e+09 1.09450367e+09 1.09450376e+09 1.09450385e+09
 1.09450393e+09 1.09450402e+09 1.09450411e+09 1.09450419e+09
 1.09450428e+09 1.09450437e+09 1.09450445e+09 1.09450454e+09
 1.09450462e+09 1.09450471e+09 1.09450480e+09 1.09450488e+09
 1.09450497e+09 1.09450506e+09 1.09450514e+09 1.09450523e+09
 1.09450532e+09 1.09450540e+09 1.09450549e+09 1.09450558e+09
 1.09450566e+09 1.09450575e+09 1.09450584e+09 1.09450592e+09
 1.09450601e+09 1.09450609e+09 1.09450618e+09 1.09450627e+09
 1.09450635e+09 1.09450644e+09 1.09450653e+09 1.09450661e+09
 1.09450670e+09 1.09450679e+09 1.09450687e+09 1.09450696e+09
 1.09450705e+09 1.09450713e+09 1.09450722e+09 1.09450731e+09
 1.09450739e+09 1.09450748e+09 1.09450757e+09 1.09450765e+09
 1.09450774e+09 1.09450782e+09 1.09450791e+09 1.09450800e+09
 1.09450808e+09 1.09450817e+09 1.09450826e+09 1.09450834e+09
 1.09450843e+09 1.09450852e+09 1.09450860e+09 1.09450869e+09
 1.09450878e+09 1.09450886e+09 1.09450895e+09 1.09450904e+09
 1.09450912e+09 1.09450921e+09 1.09450929e+09 1.09450938e+09
 1.09450947e+09 1.09450955e+09 1.09450964e+09 1.09450973e+09
 1.09450981e+09 1.09450990e+09 1.09450999e+09 1.09451007e+09
 1.09451016e+09 1.09451025e+09 1.09451033e+09 1.09451042e+09
 1.09451051e+09 1.09451059e+09 1.09451068e+09 1.09451077e+09
 1.09451085e+09 1.09451094e+09 1.09451102e+09 1.09451111e+09
 1.09451120e+09 1.09451128e+09 1.09451137e+09 1.09451146e+09
 1.09451154e+09 1.09451163e+09 1.09451172e+09 1.09451180e+09
 1.09451189e+09 1.09451198e+09 1.09451206e+09 1.09451215e+09
 1.09451224e+09 1.09451232e+09 1.09451241e+09 1.09451249e+09
 1.09451258e+09 1.09451267e+09 1.09451275e+09 1.09451284e+09
 1.09451293e+09 1.09451301e+09 1.09451310e+09 1.09451319e+09
 1.09451327e+09 1.09451336e+09 1.09451345e+09 1.09451353e+09
 1.09451362e+09 1.09451371e+09 1.09451379e+09 1.09451388e+09
 1.09451397e+09 1.09451405e+09 1.09451414e+09 1.09451422e+09
 1.09451431e+09 1.09451440e+09 1.09451448e+09 1.09451457e+09
 1.09451466e+09 1.09451474e+09 1.09451483e+09 1.09451492e+09
 1.09451500e+09 1.09451509e+09 1.09451518e+09 1.09451526e+09
 1.09451535e+09 1.09451544e+09 1.09451552e+09 1.09451561e+09
 1.09451569e+09 1.09451578e+09 1.09451587e+09 1.09451595e+09
 1.09451604e+09 1.09451613e+09 1.09451621e+09 1.09451630e+09
 1.09451639e+09 1.09451647e+09 1.09451656e+09 1.09451665e+09
 1.09451673e+09 1.09451682e+09 1.09451691e+09 1.09451699e+09
 1.09451708e+09 1.09451717e+09 1.09451725e+09 1.09451734e+09
 1.09451742e+09 1.09451751e+09 1.09451760e+09 1.09451768e+09
 1.09451777e+09 1.09451786e+09 1.09451794e+09 1.09451803e+09
 1.09451812e+09 1.09451820e+09 1.09451829e+09 1.09451838e+09
 1.09451846e+09 1.09451855e+09 1.09451864e+09 1.09451872e+09
 1.09451881e+09 1.09451889e+09 1.09451898e+09 1.09451907e+09
 1.09451915e+09 1.09451924e+09 1.09451933e+09 1.09451941e+09
 1.09451950e+09 1.09451959e+09 1.09451967e+09 1.09451976e+09
 1.09451985e+09 1.09451993e+09 1.09452002e+09 1.09452011e+09
 1.09452019e+09 1.09452028e+09 1.09452037e+09 1.09452045e+09
 1.09452054e+09 1.09452062e+09 1.09452071e+09 1.09452080e+09
 1.09452088e+09 1.09452097e+09 1.09452106e+09 1.09452114e+09
 1.09452123e+09 1.09452132e+09 1.09452140e+09 1.09452149e+09
 1.09452158e+09 1.09452166e+09 1.09452175e+09 1.09452184e+09
 1.09452192e+09 1.09452201e+09 1.09452209e+09 1.09452218e+09
 1.09452227e+09 1.09452235e+09 1.09452244e+09 1.09452253e+09
 1.09452261e+09 1.09452270e+09 1.09452279e+09 1.09452287e+09
 1.09452296e+09 1.09452305e+09 1.09452313e+09 1.09452322e+09
 1.09452331e+09 1.09452339e+09 1.09452348e+09 1.09452357e+09
 1.09452365e+09 1.09452374e+09 1.09452382e+09 1.09452391e+09
 1.09452400e+09 1.09452408e+09 1.09452417e+09 1.09452426e+09
 1.09452434e+09 1.09452443e+09 1.09452452e+09 1.09452460e+09
 1.09452469e+09 1.09452478e+09 1.09452486e+09 1.09452495e+09
 1.09452504e+09 1.09452512e+09 1.09452521e+09 1.09452529e+09
 1.09452538e+09 1.09452547e+09 1.09452555e+09 1.09452564e+09
 1.09452573e+09 1.09452581e+09 1.09452590e+09 1.09452599e+09
 1.09452607e+09 1.09452616e+09 1.09452625e+09 1.09452633e+09
 1.09452642e+09 1.09452651e+09 1.09452659e+09 1.09452668e+09
 1.09452677e+09 1.09452685e+09 1.09452694e+09 1.09452702e+09
 1.09452711e+09 1.09452720e+09 1.09452728e+09 1.09452737e+09
 1.09452746e+09 1.09452754e+09 1.09452763e+09 1.09452772e+09
 1.09452780e+09 1.09452789e+09 1.09452798e+09 1.09452806e+09
 1.09452815e+09 1.09452824e+09 1.09452832e+09 1.09452841e+09
 1.09452849e+09 1.09452858e+09 1.09452867e+09 1.09452875e+09
 1.09452884e+09 1.09452893e+09 1.09452901e+09 1.09452910e+09
 1.09452919e+09 1.09452927e+09 1.09452936e+09 1.09452945e+09
 1.09452953e+09 1.09452962e+09 1.09452971e+09 1.09452979e+09
 1.09452988e+09 1.09452997e+09 1.09453005e+09 1.09453014e+09
 1.09453022e+09 1.09453031e+09 1.09453040e+09 1.09453048e+09
 1.09453057e+09 1.09453066e+09 1.09453074e+09 1.09453083e+09
 1.09453092e+09 1.09453100e+09 1.09453109e+09 1.09453118e+09
 1.09453126e+09 1.09453135e+09 1.09453144e+09 1.09453152e+09
 1.09453161e+09 1.09453169e+09 1.09453178e+09 1.09453187e+09
 1.09453195e+09 1.09453204e+09 1.09453213e+09 1.09453221e+09
 1.09453230e+09 1.09453239e+09 1.09453247e+09 1.09453256e+09
 1.09453265e+09 1.09453273e+09 1.09453282e+09 1.09453291e+09
 1.09453299e+09 1.09453308e+09 1.09453317e+09 1.09453325e+09
 1.09453334e+09 1.09453342e+09 1.09453351e+09 1.09453360e+09
 1.09453368e+09 1.09453377e+09 1.09453386e+09 1.09453394e+09
 1.09453403e+09 1.09453412e+09 1.09453420e+09 1.09453429e+09
 1.09453438e+09 1.09453446e+09 1.09453455e+09 1.09453464e+09
 1.09453472e+09 1.09453481e+09 1.09453489e+09 1.09453498e+09
 1.09453507e+09 1.09453515e+09 1.09453524e+09 1.09453533e+09
 1.09453541e+09 1.09453550e+09 1.09453559e+09 1.09453567e+09
 1.09453576e+09 1.09453585e+09 1.09453593e+09 1.09453602e+09
 1.09453611e+09 1.09453619e+09 1.09453628e+09 1.09453637e+09
 1.09453645e+09 1.09453654e+09 1.09453662e+09 1.09453671e+09
 1.09453680e+09 1.09453688e+09 1.09453697e+09 1.09453706e+09
 1.09453714e+09 1.09453723e+09 1.09453732e+09 1.09453740e+09
 1.09453749e+09 1.09453758e+09 1.09453766e+09 1.09453775e+09
 1.09453784e+09 1.09453792e+09 1.09453801e+09 1.09453809e+09
 1.09453818e+09 1.09453827e+09 1.09453835e+09 1.09453844e+09
 1.09453853e+09 1.09453861e+09 1.09453870e+09 1.09453879e+09
 1.09453887e+09 1.09453896e+09 1.09453905e+09 1.09453913e+09
 1.09453922e+09 1.09453931e+09 1.09453939e+09 1.09453948e+09
 1.09453957e+09 1.09453965e+09 1.09453974e+09 1.09453982e+09
 1.09453991e+09 1.09454000e+09 1.09454008e+09 1.09454017e+09
 1.09454026e+09 1.09454034e+09 1.09454043e+09 1.09454052e+09
 1.09454060e+09 1.09454069e+09 1.09454078e+09 1.09454086e+09
 1.09454095e+09 1.09454104e+09 1.09454112e+09 1.09454121e+09
 1.09454129e+09 1.09454138e+09 1.09454147e+09 1.09454155e+09
 1.09454164e+09 1.09454173e+09 1.09454181e+09 1.09454190e+09
 1.09454199e+09 1.09454207e+09 1.09454216e+09 1.09454225e+09
