name =JUICE_ROI_GAN_2_0_15
flyby = ['2034 SEP 07 06:03:51', '2034 SEP 08 06:03:51']
Observation TW = <SpiceCell dtype = 1, length = 0, size = 3400, card = 14, is_set = 1, adjust = 0, init = 1, base = 94105385429712, data = 94105385429760>
Res(t) = [1.19573767 1.19456098 1.19338704 1.19221585 1.19104741 1.18988173
 1.1887188  1.18755863 1.18640123 1.18524659 1.18409472 1.18294562
 1.1817993  1.18065575 1.17951499 1.17837701 1.17724181 1.1761094
 1.17497979 1.17385296 1.17272894 1.17160771 1.17048929 1.16937368
 1.16826087 1.16715087 1.16604369 1.16493932 1.16383777 1.16273905
 1.16164315 1.16055007 1.15945983 1.15837242 1.15728785 1.15620612
 1.15512722 1.15405117 1.15297797 1.15190762 1.15084012 1.14977547
 1.14871368 1.14765476 1.14659869 1.14554549 1.14449516 1.1434477
 1.14240312 1.14136141 1.14032258 1.13928663 1.13825356 1.13722338
 1.1361961  1.1351717  1.1341502  1.13313159 1.13211589 1.13110309
 1.13009319 1.1290862  1.12808212 1.12708095 1.1260827  1.12508737
 1.12409495 1.12310546 1.1221189  1.12113526 1.12015455 1.11917678
 1.11820194 1.11723004 1.11626108 1.11529506 1.11433198 1.11337186
 1.11241468 1.11146045 1.11050918 1.10956087 1.10861552 1.10767313
 1.1067337  1.10579724 1.10486375 1.10393322 1.10300568 1.1020811
 1.10115951 1.1002409  1.09932526 1.09841262 1.09750296 1.09659629
 1.09569261 1.09479192 1.09389424 1.09299954 1.09210785 1.09121917
 1.09033348 1.0894508  1.08857114 1.08769448 1.08682083 1.0859502
 1.08508259 1.084218   1.08335643 1.08249788 1.08164236 1.08078986
 1.07994039 1.07909396 1.07825056 1.07741019 1.07657286 1.07573857
 1.07490732 1.07407911 1.07325395 1.07243184 1.07161277 1.07079675
 1.06998379 1.06917388 1.06836702 1.06756322 1.06676249 1.06596481
 1.06517019 1.06437864 1.06359016 1.06280474 1.06202239 1.06124312
 1.06046691 1.05969379 1.05892373 1.05815676 1.05739286 1.05663204
 1.05587431 1.05511966 1.05436809 1.05361961 1.05287422 1.05213192
 1.05139271 1.05065659 1.04992357 1.04919364 1.0484668  1.04774307
 1.04702243 1.0463049  1.04559046 1.04487913 1.0441709  1.04346578
 1.04276376 1.04206486 1.04136906 1.04067637 1.03998679 1.03930033
 1.03861698 1.03793674 1.03725962 1.03658561 1.03591472 1.03524695
 1.0345823  1.03392077 1.03326237 1.03260708 1.03195492 1.03130588
 1.03065997 1.03001718 1.02937752 1.02874099 1.02810758 1.0274773
 1.02685016 1.02622614 1.02560526 1.0249875  1.02437288 1.02376139
 1.02315304 1.02254782 1.02194573 1.02134678 1.02075096 1.02015828
 1.01956874 1.01898234 1.01839907 1.01781894 1.01724195 1.01666809
 1.01609738 1.0155298  1.01496537 1.01440407 1.01384592 1.0132909
 1.01273903 1.01219029 1.0116447  1.01110225 1.01056294 1.01002677
 1.00949374 1.00896385 1.00843711 1.0079135  1.00739304 1.00687572
 1.00636154 1.00585049 1.0053426  1.00483784 1.00433622 1.00383774
 1.0033424  1.0028502  1.00236114 1.00187522 1.00139244 1.0009128
 1.0004363  0.99996293 0.9994927  0.99902561 0.99856166 0.99810084
 0.99764315 0.9971886  0.99673719 0.99628891 0.99584376 0.99540174
 0.99496286 0.9945271  0.99409448 0.99366499 0.99323862 0.99281539
 0.99239528 0.9919783  0.99156444 0.99115371 0.9907461  0.99034161
 0.98994025 0.989542   0.98914688 0.98875487 0.98836598 0.98798021
 0.98759756 0.98721801 0.98684158 0.98646827 0.98609806 0.98573096
 0.98536697 0.98500609 0.98464831 0.98429364 0.98394207 0.9835936
 0.98324823 0.98290595 0.98256678 0.9822307  0.98189771 0.98156782
 0.98124101 0.9809173  0.98059667 0.98027913 0.97996467 0.97965329
 0.979345   0.97903978 0.97873764 0.97843857 0.97814258 0.97784966
 0.97755981 0.97727302 0.97698931 0.97670865 0.97643106 0.97615652
 0.97588504 0.97561662 0.97535125 0.97508893 0.97482966 0.97457344
 0.97432026 0.97407012 0.97382303 0.97357897 0.97333794 0.97309995
 0.97286499 0.97263305 0.97240414 0.97217826 0.9719554  0.97173555
 0.97151872 0.9713049  0.97109409 0.97088629 0.9706815  0.97047971
 0.97028091 0.97008512 0.96989232 0.96970251 0.96951569 0.96933185
 0.969151   0.96897313 0.96879823 0.96862631 0.96845736 0.96829138
 0.96812837 0.96796832 0.96781122 0.96765709 0.9675059  0.96735767
 0.96721238 0.96707004 0.96693064 0.96679417 0.96666064 0.96653004
 0.96640237 0.96627762 0.96615579 0.96603688 0.96592088 0.9658078
 0.96569762 0.96559034 0.96548597 0.96538449 0.9652859  0.96519021
 0.9650974  0.96500747 0.96492042 0.96483625 0.96475494 0.96467651
 0.96460094 0.96452823 0.96445837 0.96439137 0.96432722 0.96426591
 0.96420744 0.96415181 0.96409901 0.96404904 0.9640019  0.96395758
 0.96391607 0.96387738 0.9638415  0.96380842 0.96377814 0.96375066
 0.96372597 0.96370408 0.96368496 0.96366863 0.96365507 0.96364428
 0.96363626 0.963631   0.96362851 0.96362876 0.96363177 0.96363752
 0.96364601 0.96365724 0.9636712  0.96368789 0.9637073  0.96372943
 0.96375428 0.96378183 0.96381209 0.96384505 0.96388071 0.96391906
 0.96396009 0.96400381 0.9640502  0.96409927 0.964151   0.9642054
 0.96426245 0.96432216 0.96438451 0.96444951 0.96451715 0.96458742
 0.96466033 0.96473585 0.964814   0.96489476 0.96497813 0.9650641
 0.96515267 0.96524384 0.96533759 0.96543394 0.96553285 0.96563435
 0.96573841 0.96584504 0.96595422 0.96606596 0.96618025 0.96629708
 0.96641645 0.96653835 0.96666277 0.96678972 0.96691919 0.96705117
 0.96718566 0.96732264 0.96746212 0.9676041  0.96774855 0.96789549
 0.9680449  0.96819678 0.96835112 0.96850792 0.96866717 0.96882887
 0.96899301 0.96915959 0.96932859 0.96950002 0.96967387 0.96985014
 0.97002881 0.97020988 0.97039336 0.97057922 0.97076747 0.97095809
 0.9711511  0.97134647 0.9715442  0.97174429 0.97194673 0.97215152
 0.97235865 0.97256811 0.9727799  0.97299401 0.97321044 0.97342918
 0.97365023 0.97387358 0.97409921 0.97432714 0.97455735 0.97478984
 0.97502459 0.97526161 0.97550089 0.97574242 0.9759862  0.97623221
 0.97648046 0.97673095 0.97698365 0.97723857 0.9774957  0.97775504
 0.97801657 0.9782803  0.97854621 0.97881431 0.97908457 0.97935701
 0.97963161 0.97990837 0.98018728 0.98046833 0.98075152 0.98103684
 0.98132429 0.98161386 0.98190554 0.98219933 0.98249522 0.9827932
 0.98309328 0.98339544 0.98369967 0.98400598 0.98431435 0.98462478
 0.98493726 0.98525179 0.98556836 0.98588696 0.98620758 0.98653023
 0.9868549  0.98718157 0.98751025 0.98784092 0.98817358 0.98850822
 0.98884485 0.98918344 0.989524   0.98986652 0.99021099 0.9905574
 0.99090576 0.99125605 0.99160826 0.9919624  0.99231845 0.99267641
 0.99303627 0.99339803 0.99376168 0.99412721 0.99449462 0.99486389
 0.99523504 0.99560804 0.99598289 0.99635958 0.99673812 0.99711849
 0.99750068 0.99788469 0.99827052 0.99865815 0.99904759 0.99943882
 0.99983183 1.00022663 1.00062321 1.00102155 1.00142166 1.00182352
 1.00222713 1.00263249 1.00303958 1.00344841 1.00385896 1.00427122
 1.0046852  1.00510089 1.00551827 1.00593735 1.00635811 1.00678056
 1.00720467 1.00763046 1.0080579  1.008487   1.00891775 1.00935014
 1.00978417 1.01021983 1.01065711 1.011096   1.01153651 1.01197862
 1.01242233 1.01286763 1.01331451 1.01376298 1.01421301 1.01466461
 1.01511778 1.01557249 1.01602875 1.01648656 1.0169459  1.01740676
 1.01786915 1.01833306 1.01879847 1.01926539 1.0197338  1.02020371
 1.0206751  1.02114796 1.0216223  1.02209811 1.02257537 1.02305409
 1.02353425 1.02401586 1.02449889 1.02498336 1.02546925 1.02595655
 1.02644527 1.02693539 1.0274269  1.0279198  1.02841409 1.02890976
 1.0294068  1.02990521 1.03040498 1.0309061  1.03140856 1.03191237
 1.03241752 1.03292399 1.03343179 1.0339409  1.03445133 1.03496306
 1.03547609 1.03599041 1.03650601 1.0370229  1.03754106 1.03806049
 1.03858118 1.03910313 1.03962633 1.04015077 1.04067645 1.04120336
 1.0417315  1.04226086 1.04279143 1.04332321 1.04385619 1.04439037
 1.04492574 1.04546229 1.04600002 1.04653892 1.04707898 1.04762021
 1.04816259 1.04870613 1.0492508  1.04979661 1.05034355 1.05089161
 1.0514408  1.0519911  1.0525425  1.05309501 1.05364861 1.0542033
 1.05475908 1.05531593 1.05587386 1.05643285 1.0569929  1.05755401
 1.05811617 1.05867937 1.05924361 1.05980888 1.06037518 1.0609425
 1.06151084 1.06208018 1.06265053 1.06322187 1.06379421 1.06436754
 1.06494184 1.06551712 1.06609338 1.06667059 1.06724877 1.06782789
 1.06840797 1.06898899 1.06957094 1.07015383 1.07073764 1.07132237
 1.07190801 1.07249457 1.07308202 1.07367038 1.07425963 1.07484976
 1.07544078 1.07603268 1.07662544 1.07721907 1.07781356 1.07840891
 1.0790051  1.07960214 1.08020002 1.08079873 1.08139827 1.08199863
 1.08259981 1.0832018  1.0838046  1.0844082  1.0850126  1.08561779
 1.08622377 1.08683052 1.08743805 1.08804636 1.08865543 1.08926525
 1.08987584 1.09048717 1.09109925 1.09171207 1.09232562 1.09293991
 1.09355491 1.09417064 1.09478708 1.09540423 1.09602209 1.09664065
 1.0972599  1.09787984 1.09850046 1.09912176 1.09974374 1.10036639
 1.10098971 1.10161368 1.10223831 1.10286359 1.10348951 1.10411608
 1.10474328 1.10537111 1.10599957 1.10662865 1.10725835 1.10788866
 1.10851958 1.1091511  1.10978321 1.11041592 1.11104922 1.1116831
 1.11231757 1.1129526  1.11358821 1.11422438 1.11486111 1.1154984
 1.11613624 1.11677462 1.11741355 1.11805302 1.11869302 1.11933355
 1.1199746  1.12061617 1.12125826 1.12190086 1.12254396 1.12318757
 1.12383168 1.12447627 1.12512136 1.12576693 1.12641299 1.12705951
 1.12770651 1.12835398 1.12900191 1.1296503  1.13029914 1.13094844
 1.13159818 1.13224836 1.13289897 1.13355003 1.13420151 1.13485341
 1.13550574 1.13615849 1.13681164 1.13746521 1.13811918 1.13877355
 1.13942831 1.14008347 1.14073902 1.14139495 1.14205126 1.14270795
 1.14336501 1.14402243 1.14468022 1.14533838 1.14599689 1.14665575
 1.14731496 1.14797451 1.14863441 1.14929464 1.14995521 1.15061611
 1.15127733 1.15193887 1.15260073 1.15326291 1.1539254  1.15458819
 1.15525129 1.15591469 1.15657838 1.15724236 1.15790664 1.15857119
 1.15923603 1.15990115 1.16056654 1.1612322  1.16189813 1.16256433
 1.16323078 1.16389749 1.16456445 1.16523166 1.16589911 1.16656681
 1.16723475 1.16790292 1.16857133 1.16923996 1.16990882 1.1705779
 1.1712472  1.17191672 1.17258645 1.17325638 1.17392652 1.17459687
 1.17526741 1.17593814 1.17660907 1.17728019 1.1779515  1.17862298
 1.17929465 1.17996649 1.18063851 1.18131069 1.18198304 1.18265556
 1.18332824 1.18400107 1.18467406 1.1853472  1.18602049 1.18669392
 1.1873675  1.18804121 1.18871507 1.18938905 1.19006317 1.19073741
 1.19141178 1.19208627 1.19276088 1.1934356  1.19411044 1.19478538
 1.19546044 1.1961356  1.19681086 1.19748622 1.19816168 1.19883723
 1.19951287 1.20018859 1.20086441 1.2015403  1.20221628 1.20289233
 1.20356846 1.20424466 1.20492093 1.20559726 1.20627366 1.20695012
 1.20762664 1.20830321 1.20897984 1.20965652 1.21033325 1.21101003
 1.21168685 1.2123637  1.2130406  1.21371754 1.21439451 1.21507151
 1.21574853 1.21642559 1.21710267 1.21777977 1.21845689 1.21913403
 1.21981118 1.22048835 1.22116552 1.2218427  1.22251989 1.22319709
 1.22387428 1.22455147 1.22522866 1.22590584 1.22658302 1.22726019
 1.22793734 1.22861448 1.22929161 1.22996871 1.2306458  1.23132286
 1.2319999  1.23267691 1.23335389 1.23403084 1.23470776 1.23538465
 1.23606149 1.2367383  1.23741507 1.2380918  1.23876848 1.23944511
 1.2401217  1.24079823 1.24147472 1.24215115 1.24282752 1.24350384
 1.24418009 1.24485629 1.24553242 1.24620848 1.24688448 1.24756041
 1.24823628 1.24891206 1.24958778 1.25026342 1.25093898 1.25161447
 1.25228987 1.25296519 1.25364043 1.25431558 1.25499064 1.25566562
 1.2563405  1.2570153  1.25769    1.2583646  1.25903911 1.25971352
 1.26038783 1.26106205 1.26173615 1.26241016]
t = [1.09450665e+09 1.09450672e+09 1.09450680e+09 1.09450687e+09
 1.09450695e+09 1.09450702e+09 1.09450709e+09 1.09450717e+09
 1.09450724e+09 1.09450731e+09 1.09450739e+09 1.09450746e+09
 1.09450753e+09 1.09450761e+09 1.09450768e+09 1.09450776e+09
 1.09450783e+09 1.09450790e+09 1.09450798e+09 1.09450805e+09
 1.09450812e+09 1.09450820e+09 1.09450827e+09 1.09450835e+09
 1.09450842e+09 1.09450849e+09 1.09450857e+09 1.09450864e+09
 1.09450871e+09 1.09450879e+09 1.09450886e+09 1.09450894e+09
 1.09450901e+09 1.09450908e+09 1.09450916e+09 1.09450923e+09
 1.09450930e+09 1.09450938e+09 1.09450945e+09 1.09450953e+09
 1.09450960e+09 1.09450967e+09 1.09450975e+09 1.09450982e+09
 1.09450989e+09 1.09450997e+09 1.09451004e+09 1.09451012e+09
 1.09451019e+09 1.09451026e+09 1.09451034e+09 1.09451041e+09
 1.09451048e+09 1.09451056e+09 1.09451063e+09 1.09451070e+09
 1.09451078e+09 1.09451085e+09 1.09451093e+09 1.09451100e+09
 1.09451107e+09 1.09451115e+09 1.09451122e+09 1.09451129e+09
 1.09451137e+09 1.09451144e+09 1.09451152e+09 1.09451159e+09
 1.09451166e+09 1.09451174e+09 1.09451181e+09 1.09451188e+09
 1.09451196e+09 1.09451203e+09 1.09451211e+09 1.09451218e+09
 1.09451225e+09 1.09451233e+09 1.09451240e+09 1.09451247e+09
 1.09451255e+09 1.09451262e+09 1.09451270e+09 1.09451277e+09
 1.09451284e+09 1.09451292e+09 1.09451299e+09 1.09451306e+09
 1.09451314e+09 1.09451321e+09 1.09451329e+09 1.09451336e+09
 1.09451343e+09 1.09451351e+09 1.09451358e+09 1.09451365e+09
 1.09451373e+09 1.09451380e+09 1.09451388e+09 1.09451395e+09
 1.09451402e+09 1.09451410e+09 1.09451417e+09 1.09451424e+09
 1.09451432e+09 1.09451439e+09 1.09451446e+09 1.09451454e+09
 1.09451461e+09 1.09451469e+09 1.09451476e+09 1.09451483e+09
 1.09451491e+09 1.09451498e+09 1.09451505e+09 1.09451513e+09
 1.09451520e+09 1.09451528e+09 1.09451535e+09 1.09451542e+09
 1.09451550e+09 1.09451557e+09 1.09451564e+09 1.09451572e+09
 1.09451579e+09 1.09451587e+09 1.09451594e+09 1.09451601e+09
 1.09451609e+09 1.09451616e+09 1.09451623e+09 1.09451631e+09
 1.09451638e+09 1.09451646e+09 1.09451653e+09 1.09451660e+09
 1.09451668e+09 1.09451675e+09 1.09451682e+09 1.09451690e+09
 1.09451697e+09 1.09451705e+09 1.09451712e+09 1.09451719e+09
 1.09451727e+09 1.09451734e+09 1.09451741e+09 1.09451749e+09
 1.09451756e+09 1.09451764e+09 1.09451771e+09 1.09451778e+09
 1.09451786e+09 1.09451793e+09 1.09451800e+09 1.09451808e+09
 1.09451815e+09 1.09451822e+09 1.09451830e+09 1.09451837e+09
 1.09451845e+09 1.09451852e+09 1.09451859e+09 1.09451867e+09
 1.09451874e+09 1.09451881e+09 1.09451889e+09 1.09451896e+09
 1.09451904e+09 1.09451911e+09 1.09451918e+09 1.09451926e+09
 1.09451933e+09 1.09451940e+09 1.09451948e+09 1.09451955e+09
 1.09451963e+09 1.09451970e+09 1.09451977e+09 1.09451985e+09
 1.09451992e+09 1.09451999e+09 1.09452007e+09 1.09452014e+09
 1.09452022e+09 1.09452029e+09 1.09452036e+09 1.09452044e+09
 1.09452051e+09 1.09452058e+09 1.09452066e+09 1.09452073e+09
 1.09452081e+09 1.09452088e+09 1.09452095e+09 1.09452103e+09
 1.09452110e+09 1.09452117e+09 1.09452125e+09 1.09452132e+09
 1.09452139e+09 1.09452147e+09 1.09452154e+09 1.09452162e+09
 1.09452169e+09 1.09452176e+09 1.09452184e+09 1.09452191e+09
 1.09452198e+09 1.09452206e+09 1.09452213e+09 1.09452221e+09
 1.09452228e+09 1.09452235e+09 1.09452243e+09 1.09452250e+09
 1.09452257e+09 1.09452265e+09 1.09452272e+09 1.09452280e+09
 1.09452287e+09 1.09452294e+09 1.09452302e+09 1.09452309e+09
 1.09452316e+09 1.09452324e+09 1.09452331e+09 1.09452339e+09
 1.09452346e+09 1.09452353e+09 1.09452361e+09 1.09452368e+09
 1.09452375e+09 1.09452383e+09 1.09452390e+09 1.09452398e+09
 1.09452405e+09 1.09452412e+09 1.09452420e+09 1.09452427e+09
 1.09452434e+09 1.09452442e+09 1.09452449e+09 1.09452457e+09
 1.09452464e+09 1.09452471e+09 1.09452479e+09 1.09452486e+09
 1.09452493e+09 1.09452501e+09 1.09452508e+09 1.09452515e+09
 1.09452523e+09 1.09452530e+09 1.09452538e+09 1.09452545e+09
 1.09452552e+09 1.09452560e+09 1.09452567e+09 1.09452574e+09
 1.09452582e+09 1.09452589e+09 1.09452597e+09 1.09452604e+09
 1.09452611e+09 1.09452619e+09 1.09452626e+09 1.09452633e+09
 1.09452641e+09 1.09452648e+09 1.09452656e+09 1.09452663e+09
 1.09452670e+09 1.09452678e+09 1.09452685e+09 1.09452692e+09
 1.09452700e+09 1.09452707e+09 1.09452715e+09 1.09452722e+09
 1.09452729e+09 1.09452737e+09 1.09452744e+09 1.09452751e+09
 1.09452759e+09 1.09452766e+09 1.09452774e+09 1.09452781e+09
 1.09452788e+09 1.09452796e+09 1.09452803e+09 1.09452810e+09
 1.09452818e+09 1.09452825e+09 1.09452832e+09 1.09452840e+09
 1.09452847e+09 1.09452855e+09 1.09452862e+09 1.09452869e+09
 1.09452877e+09 1.09452884e+09 1.09452891e+09 1.09452899e+09
 1.09452906e+09 1.09452914e+09 1.09452921e+09 1.09452928e+09
 1.09452936e+09 1.09452943e+09 1.09452950e+09 1.09452958e+09
 1.09452965e+09 1.09452973e+09 1.09452980e+09 1.09452987e+09
 1.09452995e+09 1.09453002e+09 1.09453009e+09 1.09453017e+09
 1.09453024e+09 1.09453032e+09 1.09453039e+09 1.09453046e+09
 1.09453054e+09 1.09453061e+09 1.09453068e+09 1.09453076e+09
 1.09453083e+09 1.09453091e+09 1.09453098e+09 1.09453105e+09
 1.09453113e+09 1.09453120e+09 1.09453127e+09 1.09453135e+09
 1.09453142e+09 1.09453150e+09 1.09453157e+09 1.09453164e+09
 1.09453172e+09 1.09453179e+09 1.09453186e+09 1.09453194e+09
 1.09453201e+09 1.09453208e+09 1.09453216e+09 1.09453223e+09
 1.09453231e+09 1.09453238e+09 1.09453245e+09 1.09453253e+09
 1.09453260e+09 1.09453267e+09 1.09453275e+09 1.09453282e+09
 1.09453290e+09 1.09453297e+09 1.09453304e+09 1.09453312e+09
 1.09453319e+09 1.09453326e+09 1.09453334e+09 1.09453341e+09
 1.09453349e+09 1.09453356e+09 1.09453363e+09 1.09453371e+09
 1.09453378e+09 1.09453385e+09 1.09453393e+09 1.09453400e+09
 1.09453408e+09 1.09453415e+09 1.09453422e+09 1.09453430e+09
 1.09453437e+09 1.09453444e+09 1.09453452e+09 1.09453459e+09
 1.09453467e+09 1.09453474e+09 1.09453481e+09 1.09453489e+09
 1.09453496e+09 1.09453503e+09 1.09453511e+09 1.09453518e+09
 1.09453525e+09 1.09453533e+09 1.09453540e+09 1.09453548e+09
 1.09453555e+09 1.09453562e+09 1.09453570e+09 1.09453577e+09
 1.09453584e+09 1.09453592e+09 1.09453599e+09 1.09453607e+09
 1.09453614e+09 1.09453621e+09 1.09453629e+09 1.09453636e+09
 1.09453643e+09 1.09453651e+09 1.09453658e+09 1.09453666e+09
 1.09453673e+09 1.09453680e+09 1.09453688e+09 1.09453695e+09
 1.09453702e+09 1.09453710e+09 1.09453717e+09 1.09453725e+09
 1.09453732e+09 1.09453739e+09 1.09453747e+09 1.09453754e+09
 1.09453761e+09 1.09453769e+09 1.09453776e+09 1.09453784e+09
 1.09453791e+09 1.09453798e+09 1.09453806e+09 1.09453813e+09
 1.09453820e+09 1.09453828e+09 1.09453835e+09 1.09453843e+09
 1.09453850e+09 1.09453857e+09 1.09453865e+09 1.09453872e+09
 1.09453879e+09 1.09453887e+09 1.09453894e+09 1.09453901e+09
 1.09453909e+09 1.09453916e+09 1.09453924e+09 1.09453931e+09
 1.09453938e+09 1.09453946e+09 1.09453953e+09 1.09453960e+09
 1.09453968e+09 1.09453975e+09 1.09453983e+09 1.09453990e+09
 1.09453997e+09 1.09454005e+09 1.09454012e+09 1.09454019e+09
 1.09454027e+09 1.09454034e+09 1.09454042e+09 1.09454049e+09
 1.09454056e+09 1.09454064e+09 1.09454071e+09 1.09454078e+09
 1.09454086e+09 1.09454093e+09 1.09454101e+09 1.09454108e+09
 1.09454115e+09 1.09454123e+09 1.09454130e+09 1.09454137e+09
 1.09454145e+09 1.09454152e+09 1.09454160e+09 1.09454167e+09
 1.09454174e+09 1.09454182e+09 1.09454189e+09 1.09454196e+09
 1.09454204e+09 1.09454211e+09 1.09454219e+09 1.09454226e+09
 1.09454233e+09 1.09454241e+09 1.09454248e+09 1.09454255e+09
 1.09454263e+09 1.09454270e+09 1.09454277e+09 1.09454285e+09
 1.09454292e+09 1.09454300e+09 1.09454307e+09 1.09454314e+09
 1.09454322e+09 1.09454329e+09 1.09454336e+09 1.09454344e+09
 1.09454351e+09 1.09454359e+09 1.09454366e+09 1.09454373e+09
 1.09454381e+09 1.09454388e+09 1.09454395e+09 1.09454403e+09
 1.09454410e+09 1.09454418e+09 1.09454425e+09 1.09454432e+09
 1.09454440e+09 1.09454447e+09 1.09454454e+09 1.09454462e+09
 1.09454469e+09 1.09454477e+09 1.09454484e+09 1.09454491e+09
 1.09454499e+09 1.09454506e+09 1.09454513e+09 1.09454521e+09
 1.09454528e+09 1.09454536e+09 1.09454543e+09 1.09454550e+09
 1.09454558e+09 1.09454565e+09 1.09454572e+09 1.09454580e+09
 1.09454587e+09 1.09454594e+09 1.09454602e+09 1.09454609e+09
 1.09454617e+09 1.09454624e+09 1.09454631e+09 1.09454639e+09
 1.09454646e+09 1.09454653e+09 1.09454661e+09 1.09454668e+09
 1.09454676e+09 1.09454683e+09 1.09454690e+09 1.09454698e+09
 1.09454705e+09 1.09454712e+09 1.09454720e+09 1.09454727e+09
 1.09454735e+09 1.09454742e+09 1.09454749e+09 1.09454757e+09
 1.09454764e+09 1.09454771e+09 1.09454779e+09 1.09454786e+09
