name =JUICE_ROI_GAN_6_3_01
flyby = ['2034 SEP 28 18:48:51', '2034 SEP 29 18:48:51']
Observation TW = <SpiceCell dtype = 1, length = 0, size = 3200, card = 12, is_set = 1, adjust = 0, init = 1, base = 94488558162976, data = 94488558163024>
Res(t) = [1.51764732 1.51580826 1.51397257 1.51214026 1.51031132 1.50848577
 1.50666361 1.50484484 1.50302946 1.50121748 1.4994089  1.49760372
 1.49580196 1.4940036  1.49220866 1.49041714 1.48862904 1.48684437
 1.48506313 1.48328532 1.48151095 1.47974001 1.47797252 1.47620848
 1.47444789 1.47269076 1.47093708 1.46918686 1.46744011 1.46569683
 1.46395702 1.46222069 1.46048783 1.45875846 1.45703257 1.45531018
 1.45359128 1.45187587 1.45016397 1.44845557 1.44675068 1.4450493
 1.44335144 1.44165709 1.43996626 1.43827897 1.4365952  1.43491496
 1.43323826 1.4315651  1.42989548 1.42822941 1.42656689 1.42490792
 1.42325251 1.42160066 1.41995238 1.41830766 1.41666651 1.41502894
 1.41339495 1.41176454 1.41013771 1.40851447 1.40689483 1.40527878
 1.40366633 1.40205748 1.40045224 1.39885061 1.39725259 1.39565818
 1.3940674  1.39248024 1.3908967  1.3893168  1.38774053 1.38616789
 1.3845989  1.38303355 1.38147185 1.37991379 1.37835939 1.37680865
 1.37526157 1.37371815 1.37217839 1.37064231 1.3691099  1.36758109
 1.36605598 1.36453456 1.36301683 1.36150279 1.35999244 1.35848578
 1.35698283 1.35548358 1.35398803 1.35249619 1.35100806 1.34952365
 1.34804296 1.34656599 1.34509274 1.34362323 1.34215744 1.34069538
 1.33923707 1.33778249 1.33633166 1.33488457 1.33344123 1.33200164
 1.33056581 1.32913374 1.32770543 1.32628088 1.3248601  1.32344309
 1.32202986 1.3206204  1.31921471 1.31781282 1.3164147  1.31502037
 1.31362984 1.31224309 1.31086015 1.309481   1.30810565 1.30673411
 1.30536638 1.30400246 1.30264235 1.30128605 1.29993358 1.29858492
 1.29724009 1.29589909 1.29456191 1.29322857 1.29189906 1.29057339
 1.28925156 1.28793357 1.28661942 1.28530913 1.28400268 1.28270009
 1.28140135 1.28010647 1.27881544 1.27752829 1.27624499 1.27496556
 1.27369001 1.27241832 1.27115051 1.26988658 1.26862652 1.26737035
 1.26611806 1.26486966 1.26362514 1.26238452 1.26114779 1.25991495
 1.25868601 1.25746097 1.25623983 1.2550226  1.25380927 1.25259984
 1.25139433 1.25019273 1.24899505 1.24780127 1.24661142 1.24542549
 1.24424348 1.24306539 1.24189123 1.24072099 1.23955469 1.23839231
 1.23723387 1.23607936 1.23492879 1.23378216 1.23263947 1.23150072
 1.23036591 1.22923505 1.22810813 1.22698516 1.22586614 1.22475108
 1.22363996 1.2225328  1.2214296  1.22033035 1.21923506 1.21814373
 1.21705636 1.21597296 1.21489352 1.21381804 1.21274653 1.21167899
 1.21061542 1.20955582 1.20850019 1.20744854 1.20640085 1.20535715
 1.20431742 1.20328166 1.20224989 1.20122209 1.20019827 1.19917844
 1.19816258 1.19715071 1.19614283 1.19513893 1.19413901 1.19314308
 1.19215114 1.19116318 1.19017922 1.18919924 1.18822325 1.18725126
 1.18628325 1.18531924 1.18435921 1.18340319 1.18245115 1.18150311
 1.18055906 1.17961901 1.17868295 1.17775088 1.17682282 1.17589874
 1.17497867 1.17406259 1.17315051 1.17224242 1.17133833 1.17043824
 1.16954214 1.16865004 1.16776194 1.16687784 1.16599773 1.16512162
 1.1642495  1.16338139 1.16251727 1.16165714 1.16080101 1.15994888
 1.15910074 1.1582566  1.15741646 1.1565803  1.15574815 1.15491998
 1.15409581 1.15327563 1.15245945 1.15164725 1.15083905 1.15003484
 1.14923462 1.14843838 1.14764614 1.14685788 1.14607361 1.14529332
 1.14451702 1.14374471 1.14297638 1.14221203 1.14145166 1.14069527
 1.13994286 1.13919443 1.13844998 1.1377095  1.136973   1.13624047
 1.13551192 1.13478733 1.13406672 1.13335007 1.13263739 1.13192868
 1.13122393 1.13052314 1.12982632 1.12913345 1.12844455 1.1277596
 1.1270786  1.12640156 1.12572847 1.12505933 1.12439414 1.12373289
 1.12307559 1.12242223 1.12177281 1.12112733 1.12048579 1.11984818
 1.11921451 1.11858477 1.11795895 1.11733706 1.1167191  1.11610506
 1.11549493 1.11488873 1.11428644 1.11368807 1.1130936  1.11250304
 1.11191639 1.11133364 1.1107548  1.11017985 1.10960879 1.10904163
 1.10847836 1.10791898 1.10736349 1.10681187 1.10626414 1.10572028
 1.1051803  1.10464418 1.10411194 1.10358356 1.10305904 1.10253839
 1.10202159 1.10150864 1.10099954 1.10049429 1.09999288 1.09949532
 1.09900159 1.09851169 1.09802563 1.09754339 1.09706498 1.09659039
 1.09611961 1.09565265 1.0951895  1.09473016 1.09427462 1.09382288
 1.09337493 1.09293078 1.09249042 1.09205384 1.09162104 1.09119202
 1.09076677 1.0903453  1.08992759 1.08951364 1.08910345 1.08869701
 1.08829432 1.08789538 1.08750018 1.08710872 1.08672099 1.08633699
 1.08595672 1.08558017 1.08520733 1.08483821 1.08447279 1.08411108
 1.08375307 1.08339875 1.08304813 1.08270119 1.08235793 1.08201834
 1.08168243 1.08135019 1.08102161 1.08069669 1.08037542 1.0800578
 1.07974383 1.07943349 1.07912679 1.07882372 1.07852428 1.07822845
 1.07793624 1.07764764 1.07736264 1.07708125 1.07680345 1.07652924
 1.07625861 1.07599156 1.07572809 1.07546819 1.07521185 1.07495907
 1.07470984 1.07446417 1.07422203 1.07398343 1.07374837 1.07351683
 1.07328881 1.07306431 1.07284332 1.07262583 1.07241184 1.07220135
 1.07199434 1.07179082 1.07159077 1.07139419 1.07120108 1.07101143
 1.07082523 1.07064248 1.07046317 1.0702873  1.07011486 1.06994584
 1.06978024 1.06961806 1.06945928 1.0693039  1.06915192 1.06900332
 1.06885811 1.06871627 1.06857781 1.0684427  1.06831096 1.06818257
 1.06805752 1.06793581 1.06781744 1.06770239 1.06759066 1.06748225
 1.06737715 1.06727534 1.06717683 1.06708161 1.06698968 1.06690101
 1.06681562 1.06673349 1.06665462 1.06657899 1.06650661 1.06643746
 1.06637155 1.06630886 1.06624938 1.06619311 1.06614005 1.06609018
 1.06604351 1.06600001 1.06595969 1.06592255 1.06588856 1.06585773
 1.06583005 1.06580551 1.0657841  1.06576583 1.06575067 1.06573863
 1.0657297  1.06572387 1.06572113 1.06572147 1.0657249  1.0657314
 1.06574096 1.06575358 1.06576925 1.06578797 1.06580972 1.0658345
 1.06586231 1.06589313 1.06592695 1.06596378 1.0660036  1.06604641
 1.0660922  1.06614096 1.06619268 1.06624736 1.06630499 1.06636557
 1.06642907 1.06649551 1.06656487 1.06663714 1.06671231 1.06679038
 1.06687135 1.06695519 1.06704192 1.06713151 1.06722396 1.06731926
 1.06741742 1.06751841 1.06762223 1.06772887 1.06783833 1.0679506
 1.06806567 1.06818353 1.06830417 1.0684276  1.06855379 1.06868275
 1.06881446 1.06894892 1.06908612 1.06922605 1.06936871 1.06951408
 1.06966216 1.06981294 1.06996642 1.07012258 1.07028142 1.07044293
 1.0706071  1.07077393 1.0709434  1.07111551 1.07129026 1.07146762
 1.07164761 1.0718302  1.07201539 1.07220318 1.07239355 1.07258649
 1.07278201 1.07298008 1.07318071 1.07338389 1.0735896  1.07379784
 1.0740086  1.07422188 1.07443766 1.07465595 1.07487672 1.07509997
 1.0753257  1.0755539  1.07578455 1.07601766 1.07625321 1.07649119
 1.0767316  1.07697443 1.07721967 1.07746732 1.07771735 1.07796978
 1.07822459 1.07848177 1.07874131 1.07900321 1.07926745 1.07953404
 1.07980295 1.08007419 1.08034775 1.08062361 1.08090178 1.08118224
 1.08146498 1.08175    1.08203728 1.08232683 1.08261863 1.08291267
 1.08320895 1.08350746 1.08380818 1.08411113 1.08441627 1.08472361
 1.08503315 1.08534486 1.08565874 1.08597479 1.086293   1.08661336
 1.08693585 1.08726048 1.08758724 1.08791611 1.0882471  1.08858018
 1.08891536 1.08925262 1.08959196 1.08993337 1.09027684 1.09062237
 1.09096994 1.09131955 1.0916712  1.09202486 1.09238054 1.09273822
 1.09309791 1.09345958 1.09382324 1.09418887 1.09455647 1.09492603
 1.09529754 1.095671   1.09604639 1.09642371 1.09680294 1.0971841
 1.09756715 1.09795211 1.09833895 1.09872767 1.09911827 1.09951073
 1.09990505 1.10030122 1.10069923 1.10109908 1.10150075 1.10190425
 1.10230955 1.10271666 1.10312556 1.10353626 1.10394873 1.10436297
 1.10477898 1.10519675 1.10561627 1.10603753 1.10646052 1.10688524
 1.10731168 1.10773984 1.10816969 1.10860124 1.10903448 1.1094694
 1.109906   1.11034426 1.11078418 1.11122575 1.11166896 1.11211381
 1.11256029 1.11300838 1.11345809 1.11390941 1.11436232 1.11481683
 1.11527292 1.11573058 1.11618981 1.1166506  1.11711295 1.11757684
 1.11804227 1.11850923 1.11897772 1.11944772 1.11991923 1.12039224
 1.12086675 1.12134274 1.12182022 1.12229916 1.12277957 1.12326144
 1.12374476 1.12422953 1.12471572 1.12520335 1.1256924  1.12618286
 1.12667473 1.127168   1.12766267 1.12815872 1.12865614 1.12915494
 1.12965511 1.13015663 1.1306595  1.13116371 1.13166926 1.13217614
 1.13268434 1.13319385 1.13370468 1.1342168  1.13473022 1.13524492
 1.1357609  1.13627816 1.13679668 1.13731646 1.1378375  1.13835977
 1.13888329 1.13940804 1.13993401 1.1404612  1.1409896  1.14151921
 1.14205001 1.14258201 1.14311518 1.14364954 1.14418506 1.14472175
 1.1452596  1.14579859 1.14633873 1.14688001 1.14742241 1.14796594
 1.14851059 1.14905634 1.1496032  1.15015116 1.15070021 1.15125034
 1.15180155 1.15235383 1.15290717 1.15346158 1.15401703 1.15457353
 1.15513107 1.15568964 1.15624923 1.15680985 1.15737148 1.15793411
 1.15849775 1.15906238 1.159628   1.1601946  1.16076217 1.16133071
 1.16190022 1.16247068 1.16304209 1.16361445 1.16418774 1.16476196
 1.16533712 1.16591319 1.16649017 1.16706806 1.16764685 1.16822654
 1.16880711 1.16938857 1.1699709  1.17055411 1.17113818 1.17172311
 1.17230889 1.17289552 1.17348299 1.1740713  1.17466043 1.17525039
 1.17584116 1.17643275 1.17702515 1.17761834 1.17821233 1.1788071
 1.17940266 1.179999   1.1805961  1.18119398 1.18179261 1.182392
 1.18299213 1.18359301 1.18419463 1.18479697 1.18540005 1.18600384
 1.18660835 1.18721357 1.18781949 1.18842611 1.18903343 1.18964143
 1.19025011 1.19085947 1.1914695  1.1920802  1.19269156 1.19330357
 1.19391624 1.19452954 1.19514349 1.19575807 1.19637328 1.19698911
 1.19760556 1.19822263 1.1988403  1.19945857 1.20007744 1.2006969
 1.20131695 1.20193759 1.2025588  1.20318058 1.20380292 1.20442583
 1.2050493  1.20567331 1.20629788 1.20692298 1.20754862 1.2081748
 1.2088015  1.20942872 1.21005646 1.21068471 1.21131347 1.21194273
 1.21257249 1.21320274 1.21383348 1.2144647  1.2150964  1.21572857
 1.21636122 1.21699433 1.21762789 1.21826192 1.21889639 1.21953131
 1.22016667 1.22080246 1.22143869 1.22207535 1.22271243 1.22334993
 1.22398784 1.22462616 1.22526488 1.22590401 1.22654353 1.22718344
 1.22782375 1.22846443 1.22910549 1.22974693 1.23038873 1.23103091
 1.23167344 1.23231633 1.23295957 1.23360316 1.2342471  1.23489137
 1.23553599 1.23618093 1.2368262  1.23747179 1.23811771 1.23876393
 1.23941047 1.24005732 1.24070447 1.24135192 1.24199966 1.2426477
 1.24329602 1.24394462 1.24459351 1.24524266 1.24589209 1.24654179
 1.24719175 1.24784197 1.24849245 1.24914318 1.24979416 1.25044538
 1.25109684 1.25174854 1.25240047 1.25305263 1.25370502 1.25435763
 1.25501045 1.2556635  1.25631675 1.25697021 1.25762388 1.25827774
 1.25893181 1.25958606 1.26024051 1.26089514 1.26154995 1.26220495
 1.26286012 1.26351546 1.26417097 1.26482665 1.26548248 1.26613848
 1.26679464 1.26745094 1.26810739 1.26876399 1.26942074 1.27007762
 1.27073463 1.27139178 1.27204906 1.27270646 1.27336399 1.27402164
 1.2746794  1.27533728 1.27599527 1.27665336 1.27731156 1.27796986
 1.27862826 1.27928675 1.27994534 1.28060401 1.28126277 1.28192161
 1.28258054 1.28323954 1.28389861 1.28455776 1.28521697 1.28587625
 1.2865356  1.287195   1.28785446 1.28851398 1.28917354 1.28983316
 1.29049282 1.29115252 1.29181227 1.29247205 1.29313187 1.29379172
 1.2944516  1.29511151 1.29577145 1.2964314  1.29709138 1.29775137
 1.29841138 1.2990714  1.29973142 1.30039146]
t = [1.09635675e+09 1.09635683e+09 1.09635692e+09 1.09635700e+09
 1.09635709e+09 1.09635717e+09 1.09635725e+09 1.09635734e+09
 1.09635742e+09 1.09635751e+09 1.09635759e+09 1.09635767e+09
 1.09635776e+09 1.09635784e+09 1.09635793e+09 1.09635801e+09
 1.09635809e+09 1.09635818e+09 1.09635826e+09 1.09635834e+09
 1.09635843e+09 1.09635851e+09 1.09635860e+09 1.09635868e+09
 1.09635876e+09 1.09635885e+09 1.09635893e+09 1.09635902e+09
 1.09635910e+09 1.09635918e+09 1.09635927e+09 1.09635935e+09
 1.09635944e+09 1.09635952e+09 1.09635960e+09 1.09635969e+09
 1.09635977e+09 1.09635986e+09 1.09635994e+09 1.09636002e+09
 1.09636011e+09 1.09636019e+09 1.09636028e+09 1.09636036e+09
 1.09636044e+09 1.09636053e+09 1.09636061e+09 1.09636070e+09
 1.09636078e+09 1.09636086e+09 1.09636095e+09 1.09636103e+09
 1.09636111e+09 1.09636120e+09 1.09636128e+09 1.09636137e+09
 1.09636145e+09 1.09636153e+09 1.09636162e+09 1.09636170e+09
 1.09636179e+09 1.09636187e+09 1.09636195e+09 1.09636204e+09
 1.09636212e+09 1.09636221e+09 1.09636229e+09 1.09636237e+09
 1.09636246e+09 1.09636254e+09 1.09636263e+09 1.09636271e+09
 1.09636279e+09 1.09636288e+09 1.09636296e+09 1.09636305e+09
 1.09636313e+09 1.09636321e+09 1.09636330e+09 1.09636338e+09
 1.09636346e+09 1.09636355e+09 1.09636363e+09 1.09636372e+09
 1.09636380e+09 1.09636388e+09 1.09636397e+09 1.09636405e+09
 1.09636414e+09 1.09636422e+09 1.09636430e+09 1.09636439e+09
 1.09636447e+09 1.09636456e+09 1.09636464e+09 1.09636472e+09
 1.09636481e+09 1.09636489e+09 1.09636498e+09 1.09636506e+09
 1.09636514e+09 1.09636523e+09 1.09636531e+09 1.09636540e+09
 1.09636548e+09 1.09636556e+09 1.09636565e+09 1.09636573e+09
 1.09636582e+09 1.09636590e+09 1.09636598e+09 1.09636607e+09
 1.09636615e+09 1.09636623e+09 1.09636632e+09 1.09636640e+09
 1.09636649e+09 1.09636657e+09 1.09636665e+09 1.09636674e+09
 1.09636682e+09 1.09636691e+09 1.09636699e+09 1.09636707e+09
 1.09636716e+09 1.09636724e+09 1.09636733e+09 1.09636741e+09
 1.09636749e+09 1.09636758e+09 1.09636766e+09 1.09636775e+09
 1.09636783e+09 1.09636791e+09 1.09636800e+09 1.09636808e+09
 1.09636817e+09 1.09636825e+09 1.09636833e+09 1.09636842e+09
 1.09636850e+09 1.09636858e+09 1.09636867e+09 1.09636875e+09
 1.09636884e+09 1.09636892e+09 1.09636900e+09 1.09636909e+09
 1.09636917e+09 1.09636926e+09 1.09636934e+09 1.09636942e+09
 1.09636951e+09 1.09636959e+09 1.09636968e+09 1.09636976e+09
 1.09636984e+09 1.09636993e+09 1.09637001e+09 1.09637010e+09
 1.09637018e+09 1.09637026e+09 1.09637035e+09 1.09637043e+09
 1.09637052e+09 1.09637060e+09 1.09637068e+09 1.09637077e+09
 1.09637085e+09 1.09637094e+09 1.09637102e+09 1.09637110e+09
 1.09637119e+09 1.09637127e+09 1.09637135e+09 1.09637144e+09
 1.09637152e+09 1.09637161e+09 1.09637169e+09 1.09637177e+09
 1.09637186e+09 1.09637194e+09 1.09637203e+09 1.09637211e+09
 1.09637219e+09 1.09637228e+09 1.09637236e+09 1.09637245e+09
 1.09637253e+09 1.09637261e+09 1.09637270e+09 1.09637278e+09
 1.09637287e+09 1.09637295e+09 1.09637303e+09 1.09637312e+09
 1.09637320e+09 1.09637329e+09 1.09637337e+09 1.09637345e+09
 1.09637354e+09 1.09637362e+09 1.09637370e+09 1.09637379e+09
 1.09637387e+09 1.09637396e+09 1.09637404e+09 1.09637412e+09
 1.09637421e+09 1.09637429e+09 1.09637438e+09 1.09637446e+09
 1.09637454e+09 1.09637463e+09 1.09637471e+09 1.09637480e+09
 1.09637488e+09 1.09637496e+09 1.09637505e+09 1.09637513e+09
 1.09637522e+09 1.09637530e+09 1.09637538e+09 1.09637547e+09
 1.09637555e+09 1.09637564e+09 1.09637572e+09 1.09637580e+09
 1.09637589e+09 1.09637597e+09 1.09637605e+09 1.09637614e+09
 1.09637622e+09 1.09637631e+09 1.09637639e+09 1.09637647e+09
 1.09637656e+09 1.09637664e+09 1.09637673e+09 1.09637681e+09
 1.09637689e+09 1.09637698e+09 1.09637706e+09 1.09637715e+09
 1.09637723e+09 1.09637731e+09 1.09637740e+09 1.09637748e+09
 1.09637757e+09 1.09637765e+09 1.09637773e+09 1.09637782e+09
 1.09637790e+09 1.09637799e+09 1.09637807e+09 1.09637815e+09
 1.09637824e+09 1.09637832e+09 1.09637841e+09 1.09637849e+09
 1.09637857e+09 1.09637866e+09 1.09637874e+09 1.09637882e+09
 1.09637891e+09 1.09637899e+09 1.09637908e+09 1.09637916e+09
 1.09637924e+09 1.09637933e+09 1.09637941e+09 1.09637950e+09
 1.09637958e+09 1.09637966e+09 1.09637975e+09 1.09637983e+09
 1.09637992e+09 1.09638000e+09 1.09638008e+09 1.09638017e+09
 1.09638025e+09 1.09638034e+09 1.09638042e+09 1.09638050e+09
 1.09638059e+09 1.09638067e+09 1.09638076e+09 1.09638084e+09
 1.09638092e+09 1.09638101e+09 1.09638109e+09 1.09638117e+09
 1.09638126e+09 1.09638134e+09 1.09638143e+09 1.09638151e+09
 1.09638159e+09 1.09638168e+09 1.09638176e+09 1.09638185e+09
 1.09638193e+09 1.09638201e+09 1.09638210e+09 1.09638218e+09
 1.09638227e+09 1.09638235e+09 1.09638243e+09 1.09638252e+09
 1.09638260e+09 1.09638269e+09 1.09638277e+09 1.09638285e+09
 1.09638294e+09 1.09638302e+09 1.09638311e+09 1.09638319e+09
 1.09638327e+09 1.09638336e+09 1.09638344e+09 1.09638353e+09
 1.09638361e+09 1.09638369e+09 1.09638378e+09 1.09638386e+09
 1.09638394e+09 1.09638403e+09 1.09638411e+09 1.09638420e+09
 1.09638428e+09 1.09638436e+09 1.09638445e+09 1.09638453e+09
 1.09638462e+09 1.09638470e+09 1.09638478e+09 1.09638487e+09
 1.09638495e+09 1.09638504e+09 1.09638512e+09 1.09638520e+09
 1.09638529e+09 1.09638537e+09 1.09638546e+09 1.09638554e+09
 1.09638562e+09 1.09638571e+09 1.09638579e+09 1.09638588e+09
 1.09638596e+09 1.09638604e+09 1.09638613e+09 1.09638621e+09
 1.09638629e+09 1.09638638e+09 1.09638646e+09 1.09638655e+09
 1.09638663e+09 1.09638671e+09 1.09638680e+09 1.09638688e+09
 1.09638697e+09 1.09638705e+09 1.09638713e+09 1.09638722e+09
 1.09638730e+09 1.09638739e+09 1.09638747e+09 1.09638755e+09
 1.09638764e+09 1.09638772e+09 1.09638781e+09 1.09638789e+09
 1.09638797e+09 1.09638806e+09 1.09638814e+09 1.09638823e+09
 1.09638831e+09 1.09638839e+09 1.09638848e+09 1.09638856e+09
 1.09638865e+09 1.09638873e+09 1.09638881e+09 1.09638890e+09
 1.09638898e+09 1.09638906e+09 1.09638915e+09 1.09638923e+09
 1.09638932e+09 1.09638940e+09 1.09638948e+09 1.09638957e+09
 1.09638965e+09 1.09638974e+09 1.09638982e+09 1.09638990e+09
 1.09638999e+09 1.09639007e+09 1.09639016e+09 1.09639024e+09
 1.09639032e+09 1.09639041e+09 1.09639049e+09 1.09639058e+09
 1.09639066e+09 1.09639074e+09 1.09639083e+09 1.09639091e+09
 1.09639100e+09 1.09639108e+09 1.09639116e+09 1.09639125e+09
 1.09639133e+09 1.09639141e+09 1.09639150e+09 1.09639158e+09
 1.09639167e+09 1.09639175e+09 1.09639183e+09 1.09639192e+09
 1.09639200e+09 1.09639209e+09 1.09639217e+09 1.09639225e+09
 1.09639234e+09 1.09639242e+09 1.09639251e+09 1.09639259e+09
 1.09639267e+09 1.09639276e+09 1.09639284e+09 1.09639293e+09
 1.09639301e+09 1.09639309e+09 1.09639318e+09 1.09639326e+09
 1.09639335e+09 1.09639343e+09 1.09639351e+09 1.09639360e+09
 1.09639368e+09 1.09639377e+09 1.09639385e+09 1.09639393e+09
 1.09639402e+09 1.09639410e+09 1.09639418e+09 1.09639427e+09
 1.09639435e+09 1.09639444e+09 1.09639452e+09 1.09639460e+09
 1.09639469e+09 1.09639477e+09 1.09639486e+09 1.09639494e+09
 1.09639502e+09 1.09639511e+09 1.09639519e+09 1.09639528e+09
 1.09639536e+09 1.09639544e+09 1.09639553e+09 1.09639561e+09
 1.09639570e+09 1.09639578e+09 1.09639586e+09 1.09639595e+09
 1.09639603e+09 1.09639612e+09 1.09639620e+09 1.09639628e+09
 1.09639637e+09 1.09639645e+09 1.09639653e+09 1.09639662e+09
 1.09639670e+09 1.09639679e+09 1.09639687e+09 1.09639695e+09
 1.09639704e+09 1.09639712e+09 1.09639721e+09 1.09639729e+09
 1.09639737e+09 1.09639746e+09 1.09639754e+09 1.09639763e+09
 1.09639771e+09 1.09639779e+09 1.09639788e+09 1.09639796e+09
 1.09639805e+09 1.09639813e+09 1.09639821e+09 1.09639830e+09
 1.09639838e+09 1.09639847e+09 1.09639855e+09 1.09639863e+09
 1.09639872e+09 1.09639880e+09 1.09639889e+09 1.09639897e+09
 1.09639905e+09 1.09639914e+09 1.09639922e+09 1.09639930e+09
 1.09639939e+09 1.09639947e+09 1.09639956e+09 1.09639964e+09
 1.09639972e+09 1.09639981e+09 1.09639989e+09 1.09639998e+09
 1.09640006e+09 1.09640014e+09 1.09640023e+09 1.09640031e+09
 1.09640040e+09 1.09640048e+09 1.09640056e+09 1.09640065e+09
 1.09640073e+09 1.09640082e+09 1.09640090e+09 1.09640098e+09
 1.09640107e+09 1.09640115e+09 1.09640124e+09 1.09640132e+09
 1.09640140e+09 1.09640149e+09 1.09640157e+09 1.09640165e+09
 1.09640174e+09 1.09640182e+09 1.09640191e+09 1.09640199e+09
 1.09640207e+09 1.09640216e+09 1.09640224e+09 1.09640233e+09
 1.09640241e+09 1.09640249e+09 1.09640258e+09 1.09640266e+09
 1.09640275e+09 1.09640283e+09 1.09640291e+09 1.09640300e+09
 1.09640308e+09 1.09640317e+09 1.09640325e+09 1.09640333e+09
 1.09640342e+09 1.09640350e+09 1.09640359e+09 1.09640367e+09
