name =JUICE_ROI_GAN_6_3_09
flyby = ['2034 SEP 07 06:03:51', '2034 SEP 08 06:03:51']
Observation TW = <SpiceCell dtype = 1, length = 0, size = 3200, card = 12, is_set = 1, adjust = 0, init = 1, base = 93999402810752, data = 93999402810800>
Res(t) = [2.71365527 2.70901582 2.70437818 2.6997424  2.69510854 2.69047663
 2.68584673 2.68121889 2.67659314 2.67196954 2.66734814 2.66272898
 2.65811212 2.65349759 2.64888545 2.64427574 2.63966851 2.63506382
 2.6304617  2.6258622  2.62126538 2.61667128 2.61207994 2.60749142
 2.60290576 2.59832302 2.59374323 2.58916645 2.58459272 2.58002209
 2.57545461 2.57089032 2.56632928 2.56177153 2.55721712 2.55266609
 2.54811849 2.54357438 2.53903379 2.53449678 2.52996339 2.52543366
 2.52090765 2.51638541 2.51186697 2.50735239 2.50284171 2.49833498
 2.49383225 2.48933356 2.48483896 2.4803485  2.47586221 2.47138015
 2.46690237 2.46242891 2.45795981 2.45349513 2.4490349  2.44457917
 2.440128   2.43568141 2.43123947 2.42680221 2.42236968 2.41794193
 2.41351899 2.40910092 2.40468776 2.40027955 2.39587633 2.39147817
 2.38708508 2.38269713 2.37831435 2.37393679 2.36956449 2.36519749
 2.36083584 2.35647959 2.35212876 2.34778342 2.34344359 2.33910933
 2.33478067 2.33045766 2.32614034 2.32182875 2.31752293 2.31322293
 2.30892879 2.30464054 2.30035823 2.2960819  2.29181159 2.28754734
 2.2832892  2.27903719 2.27479137 2.27055177 2.26631843 2.26209139
 2.2578707  2.25365638 2.24944848 2.24524704 2.2410521  2.23686369
 2.23268185 2.22850663 2.22433805 2.22017616 2.216021   2.21187259
 2.20773098 2.20359621 2.19946832 2.19534733 2.19123328 2.18712621
 2.18302616 2.17893317 2.17484726 2.17076847 2.16669684 2.1626324
 2.15857519 2.15452524 2.15048259 2.14644726 2.14241929 2.13839873
 2.13438559 2.13037991 2.12638173 2.12239108 2.11840799 2.11443249
 2.11046461 2.10650439 2.10255185 2.09860703 2.09466996 2.09074067
 2.0868192  2.08290556 2.07899979 2.07510192 2.07121198 2.06733
 2.06345601 2.05959003 2.0557321  2.05188224 2.04804049 2.04420686
 2.04038139 2.03656411 2.03275503 2.0289542  2.02516163 2.02137735
 2.01760139 2.01383378 2.01007453 2.00632368 2.00258124 1.99884725
 1.99512174 1.99140471 1.98769621 1.98399624 1.98030485 1.97662204
 1.97294784 1.96928228 1.96562538 1.96197716 1.95833764 1.95470684
 1.9510848  1.94747152 1.94386703 1.94027135 1.9366845  1.9331065
 1.92953738 1.92597715 1.92242583 1.91888344 1.91535    1.91182553
 1.90831005 1.90480358 1.90130613 1.89781772 1.89433838 1.89086811
 1.88740694 1.88395489 1.88051196 1.87707818 1.87365357 1.87023813
 1.86683188 1.86343485 1.86004705 1.85666848 1.85329917 1.84993913
 1.84658837 1.84324692 1.83991478 1.83659196 1.83327848 1.82997436
 1.82667961 1.82339423 1.82011825 1.81685167 1.8135945  1.81034677
 1.80710847 1.80387962 1.80066024 1.79745033 1.7942499  1.79105897
 1.78787754 1.78470562 1.78154323 1.77839037 1.77524706 1.77211329
 1.76898909 1.76587446 1.7627694  1.75967393 1.75658806 1.75351178
 1.75044512 1.74738807 1.74434064 1.74130284 1.73827469 1.73525617
 1.7322473  1.72924809 1.72625854 1.72327866 1.72030845 1.71734791
 1.71439706 1.71145589 1.70852442 1.70560264 1.70269056 1.69978818
 1.69689551 1.69401255 1.69113931 1.68827578 1.68542197 1.68257788
 1.67974352 1.67691889 1.67410398 1.6712988  1.66850336 1.66571765
 1.66294168 1.66017544 1.65741894 1.65467218 1.65193515 1.64920787
 1.64649032 1.64378251 1.64108444 1.63839611 1.63571751 1.63304865
 1.63038953 1.62774014 1.62510048 1.62247055 1.61985036 1.61723989
 1.61463915 1.61204813 1.60946683 1.60689525 1.60433338 1.60178123
 1.59923879 1.59670605 1.59418302 1.59166968 1.58916604 1.5866721
 1.58418784 1.58171326 1.57924836 1.57679313 1.57434758 1.57191168
 1.56948545 1.56706887 1.56466194 1.56226465 1.559877   1.55749898
 1.55513059 1.55277182 1.55042266 1.5480831  1.54575315 1.54343278
 1.54112201 1.53882081 1.53652919 1.53424713 1.53197462 1.52971167
 1.52745826 1.52521438 1.52298003 1.5207552  1.51853987 1.51633405
 1.51413772 1.51195087 1.5097735  1.5076056  1.50544715 1.50329815
 1.50115859 1.49902846 1.49690774 1.49479644 1.49269453 1.49060202
 1.48851889 1.48644512 1.48438072 1.48232566 1.48027995 1.47824356
 1.47621648 1.47419872 1.47219025 1.47019106 1.46820114 1.46622049
 1.46424909 1.46228693 1.46033399 1.45839027 1.45645575 1.45453042
 1.45261427 1.45070729 1.44880947 1.44692078 1.44504123 1.44317079
 1.44130946 1.43945722 1.43761406 1.43577997 1.43395493 1.43213893
 1.43033196 1.428534   1.42674504 1.42496507 1.42319407 1.42143203
 1.41967894 1.41793478 1.41619954 1.4144732  1.41275575 1.41104718
 1.40934747 1.4076566  1.40597457 1.40430136 1.40263695 1.40098133
 1.39933449 1.39769641 1.39606707 1.39444646 1.39283457 1.39123138
 1.38963687 1.38805103 1.38647385 1.38490531 1.38334539 1.38179408
 1.38025136 1.37871722 1.37719165 1.37567462 1.37416611 1.37266613
 1.37117464 1.36969164 1.3682171  1.36675101 1.36529336 1.36384413
 1.3624033  1.36097086 1.35954678 1.35813106 1.35672368 1.35532461
 1.35393386 1.35255139 1.35117719 1.34981124 1.34845353 1.34710404
 1.34576276 1.34442967 1.34310474 1.34178797 1.34047933 1.33917882
 1.3378864  1.33660208 1.33532582 1.33405761 1.33279744 1.33154528
 1.33030112 1.32906494 1.32783673 1.32661647 1.32540414 1.32419972
 1.32300319 1.32181454 1.32063376 1.31946081 1.31829569 1.31713838
 1.31598886 1.31484711 1.31371311 1.31258685 1.31146831 1.31035747
 1.30925431 1.30815882 1.30707098 1.30599077 1.30491817 1.30385316
 1.30279573 1.30174586 1.30070353 1.29966872 1.29864141 1.2976216
 1.29660925 1.29560435 1.29460688 1.29361683 1.29263417 1.29165889
 1.29069097 1.28973039 1.28877714 1.28783119 1.28689253 1.28596113
 1.28503699 1.28412009 1.28321039 1.28230789 1.28141258 1.28052442
 1.2796434  1.2787695  1.27790272 1.27704301 1.27619038 1.2753448
 1.27450625 1.27367471 1.27285017 1.27203261 1.27122201 1.27041835
 1.26962161 1.26883177 1.26804883 1.26727275 1.26650352 1.26574112
 1.26498553 1.26423674 1.26349473 1.26275947 1.26203096 1.26130917
 1.26059408 1.25988568 1.25918394 1.25848886 1.25780041 1.25711856
 1.25644332 1.25577465 1.25511254 1.25445697 1.25380792 1.25316537
 1.25252932 1.25189973 1.25127658 1.25065988 1.25004958 1.24944568
 1.24884816 1.24825699 1.24767217 1.24709367 1.24652148 1.24595558
 1.24539594 1.24484256 1.24429541 1.24375447 1.24321973 1.24269118
 1.24216878 1.24165253 1.24114241 1.24063839 1.24014047 1.23964861
 1.23916282 1.23868306 1.23820932 1.23774158 1.23727983 1.23682404
 1.23637421 1.2359303  1.23549231 1.23506022 1.234634   1.23421365
 1.23379914 1.23339046 1.23298758 1.2325905  1.23219919 1.23181364
 1.23143383 1.23105974 1.23069135 1.23032866 1.22997163 1.22962025
 1.22927452 1.2289344  1.22859988 1.22827095 1.22794758 1.22762977
 1.22731748 1.22701072 1.22670945 1.22641367 1.22612335 1.22583848
 1.22555905 1.22528502 1.2250164  1.22475316 1.22449528 1.22424275
 1.22399555 1.22375366 1.22351708 1.22328577 1.22305973 1.22283894
 1.22262338 1.22241304 1.22220789 1.22200793 1.22181313 1.22162349
 1.22143897 1.22125958 1.22108529 1.22091608 1.22075194 1.22059285
 1.2204388  1.22028977 1.22014574 1.22000671 1.21987264 1.21974354
 1.21961937 1.21950013 1.2193858  1.21927636 1.2191718  1.2190721
 1.21897725 1.21888723 1.21880202 1.21872161 1.21864599 1.21857513
 1.21850903 1.21844767 1.21839103 1.2183391  1.21829185 1.21824929
 1.21821138 1.21817813 1.2181495  1.21812549 1.21810608 1.21809125
 1.218081   1.2180753  1.21807415 1.21807752 1.2180854  1.21809777
 1.21811463 1.21813596 1.21816173 1.21819195 1.21822659 1.21826564
 1.21830908 1.2183569  1.21840908 1.21846562 1.21852649 1.21859169
 1.21866119 1.21873499 1.21881306 1.2188954  1.21898199 1.21907282
 1.21916787 1.21926713 1.21937059 1.21947823 1.21959003 1.21970599
 1.21982608 1.21995031 1.22007864 1.22021107 1.22034759 1.22048818
 1.22063283 1.22078152 1.22093424 1.22109098 1.22125172 1.22141645
 1.22158516 1.22175784 1.22193447 1.22211503 1.22229952 1.22248792
 1.22268021 1.2228764  1.22307645 1.22328037 1.22348813 1.22369973
 1.22391514 1.22413437 1.22435739 1.2245842  1.22481477 1.2250491
 1.22528718 1.22552899 1.22577452 1.22602376 1.22627669 1.22653331
 1.2267936  1.22705755 1.22732514 1.22759637 1.22787122 1.22814968
 1.22843173 1.22871738 1.2290066  1.22929938 1.22959571 1.22989558
 1.23019897 1.23050589 1.2308163  1.23113021 1.2314476  1.23176845
 1.23209276 1.23242052 1.23275172 1.23308633 1.23342436 1.23376578
 1.2341106  1.23445879 1.23481035 1.23516527 1.23552353 1.23588512
 1.23625004 1.23661826 1.23698979 1.23736461 1.2377427  1.23812406
 1.23850868 1.23889655 1.23928765 1.23968198 1.24007952 1.24048026
 1.2408842  1.24129132 1.24170162 1.24211507 1.24253168 1.24295143
 1.24337431 1.24380031 1.24422943 1.24466164 1.24509695 1.24553533
 1.24597679 1.2464213  1.24686887 1.24731948 1.24777312 1.24822978
 1.24868945 1.24915212 1.24961779 1.25008644 1.25055806 1.25103265
 1.25151019 1.25199067 1.25247409 1.25296043 1.2534497  1.25394186
 1.25443693 1.25493489 1.25543572 1.25593943 1.25644599 1.25695541
 1.25746767 1.25798277 1.25850069 1.25902143 1.25954497 1.26007132
 1.26060045 1.26113237 1.26166706 1.26220451 1.26274472 1.26328767
 1.26383337 1.26438179 1.26493294 1.26548679 1.26604336 1.26660262
 1.26716456 1.26772919 1.26829649 1.26886646 1.26943907 1.27001434
 1.27059225 1.27117278 1.27175594 1.27234172 1.2729301  1.27352109
 1.27411466 1.27471082 1.27530956 1.27591087 1.27651473 1.27712116
 1.27773012 1.27834163 1.27895567 1.27957223 1.2801913  1.28081289
 1.28143698 1.28206356 1.28269263 1.28332418 1.2839582  1.28459469
 1.28523364 1.28587504 1.28651888 1.28716516 1.28781387 1.28846501
 1.28911856 1.28977452 1.29043289 1.29109365 1.2917568  1.29242234
 1.29309025 1.29376053 1.29443318 1.29510818 1.29578554 1.29646523
 1.29714727 1.29783164 1.29851833 1.29920734 1.29989866 1.30059229
 1.30128822 1.30198645 1.30268696 1.30338975 1.30409482 1.30480216
 1.30551176 1.30622363 1.30693774 1.3076541  1.3083727  1.30909354
 1.3098166  1.31054189 1.3112694  1.31199912 1.31273104 1.31346517
 1.31420149 1.31494    1.3156807  1.31642357 1.31716862 1.31791584
 1.31866523 1.31941677 1.32017046 1.3209263  1.32168428 1.32244441
 1.32320666 1.32397104 1.32473755 1.32550617 1.3262769  1.32704974
 1.32782469 1.32860173 1.32938087 1.33016209 1.3309454  1.33173079
 1.33251825 1.33330779 1.33409939 1.33489304 1.33568876 1.33648653
 1.33728634 1.3380882  1.3388921  1.33969803 1.340506   1.34131599
 1.342128   1.34294203 1.34375807 1.34457612 1.34539618 1.34621823
 1.34704229 1.34786834 1.34869638 1.3495264  1.35035841 1.3511924
 1.35202835 1.35286628 1.35370618 1.35454804 1.35539186 1.35623763
 1.35708536 1.35793504 1.35878666 1.35964022 1.36049572 1.36135316
 1.36221252 1.36307382 1.36393704 1.36480218 1.36566924 1.36653822
 1.36740911 1.3682819  1.36915661 1.37003321 1.37091172 1.37179212
 1.37267442 1.3735586  1.37444468 1.37533264 1.37622248 1.3771142
 1.3780078  1.37890328 1.37980062 1.38069983 1.38160091 1.38250386
 1.38340866 1.38431532 1.38522384 1.38613421 1.38704644 1.38796051
 1.38887643 1.38979419 1.39071379 1.39163524 1.39255852 1.39348363
 1.39441058 1.39533936 1.39626997 1.39720241 1.39813667 1.39907275
 1.40001065 1.40095038 1.40189192 1.40283527 1.40378044 1.40472742
 1.40567621 1.4066268  1.40757921 1.40853341 1.40948943 1.41044724
 1.41140685 1.41236826 1.41333147 1.41429647 1.41526327 1.41623186
 1.41720224 1.41817441 1.41914837 1.42012412 1.42110165 1.42208097
 1.42306207 1.42404495 1.42502962 1.42601607]
t = [1.09449555e+09 1.09449564e+09 1.09449572e+09 1.09449580e+09
 1.09449589e+09 1.09449597e+09 1.09449606e+09 1.09449614e+09
 1.09449623e+09 1.09449631e+09 1.09449640e+09 1.09449648e+09
 1.09449657e+09 1.09449665e+09 1.09449674e+09 1.09449682e+09
 1.09449691e+09 1.09449699e+09 1.09449708e+09 1.09449716e+09
 1.09449725e+09 1.09449733e+09 1.09449742e+09 1.09449750e+09
 1.09449759e+09 1.09449767e+09 1.09449776e+09 1.09449784e+09
 1.09449793e+09 1.09449801e+09 1.09449810e+09 1.09449818e+09
 1.09449826e+09 1.09449835e+09 1.09449843e+09 1.09449852e+09
 1.09449860e+09 1.09449869e+09 1.09449877e+09 1.09449886e+09
 1.09449894e+09 1.09449903e+09 1.09449911e+09 1.09449920e+09
 1.09449928e+09 1.09449937e+09 1.09449945e+09 1.09449954e+09
 1.09449962e+09 1.09449971e+09 1.09449979e+09 1.09449988e+09
 1.09449996e+09 1.09450005e+09 1.09450013e+09 1.09450022e+09
 1.09450030e+09 1.09450039e+09 1.09450047e+09 1.09450056e+09
 1.09450064e+09 1.09450073e+09 1.09450081e+09 1.09450089e+09
 1.09450098e+09 1.09450106e+09 1.09450115e+09 1.09450123e+09
 1.09450132e+09 1.09450140e+09 1.09450149e+09 1.09450157e+09
 1.09450166e+09 1.09450174e+09 1.09450183e+09 1.09450191e+09
 1.09450200e+09 1.09450208e+09 1.09450217e+09 1.09450225e+09
 1.09450234e+09 1.09450242e+09 1.09450251e+09 1.09450259e+09
 1.09450268e+09 1.09450276e+09 1.09450285e+09 1.09450293e+09
 1.09450302e+09 1.09450310e+09 1.09450319e+09 1.09450327e+09
 1.09450335e+09 1.09450344e+09 1.09450352e+09 1.09450361e+09
 1.09450369e+09 1.09450378e+09 1.09450386e+09 1.09450395e+09
 1.09450403e+09 1.09450412e+09 1.09450420e+09 1.09450429e+09
 1.09450437e+09 1.09450446e+09 1.09450454e+09 1.09450463e+09
 1.09450471e+09 1.09450480e+09 1.09450488e+09 1.09450497e+09
 1.09450505e+09 1.09450514e+09 1.09450522e+09 1.09450531e+09
 1.09450539e+09 1.09450548e+09 1.09450556e+09 1.09450565e+09
 1.09450573e+09 1.09450582e+09 1.09450590e+09 1.09450598e+09
 1.09450607e+09 1.09450615e+09 1.09450624e+09 1.09450632e+09
 1.09450641e+09 1.09450649e+09 1.09450658e+09 1.09450666e+09
 1.09450675e+09 1.09450683e+09 1.09450692e+09 1.09450700e+09
 1.09450709e+09 1.09450717e+09 1.09450726e+09 1.09450734e+09
 1.09450743e+09 1.09450751e+09 1.09450760e+09 1.09450768e+09
 1.09450777e+09 1.09450785e+09 1.09450794e+09 1.09450802e+09
 1.09450811e+09 1.09450819e+09 1.09450828e+09 1.09450836e+09
 1.09450845e+09 1.09450853e+09 1.09450861e+09 1.09450870e+09
 1.09450878e+09 1.09450887e+09 1.09450895e+09 1.09450904e+09
 1.09450912e+09 1.09450921e+09 1.09450929e+09 1.09450938e+09
 1.09450946e+09 1.09450955e+09 1.09450963e+09 1.09450972e+09
 1.09450980e+09 1.09450989e+09 1.09450997e+09 1.09451006e+09
 1.09451014e+09 1.09451023e+09 1.09451031e+09 1.09451040e+09
 1.09451048e+09 1.09451057e+09 1.09451065e+09 1.09451074e+09
 1.09451082e+09 1.09451091e+09 1.09451099e+09 1.09451107e+09
 1.09451116e+09 1.09451124e+09 1.09451133e+09 1.09451141e+09
 1.09451150e+09 1.09451158e+09 1.09451167e+09 1.09451175e+09
 1.09451184e+09 1.09451192e+09 1.09451201e+09 1.09451209e+09
 1.09451218e+09 1.09451226e+09 1.09451235e+09 1.09451243e+09
 1.09451252e+09 1.09451260e+09 1.09451269e+09 1.09451277e+09
 1.09451286e+09 1.09451294e+09 1.09451303e+09 1.09451311e+09
 1.09451320e+09 1.09451328e+09 1.09451337e+09 1.09451345e+09
 1.09451354e+09 1.09451362e+09 1.09451370e+09 1.09451379e+09
 1.09451387e+09 1.09451396e+09 1.09451404e+09 1.09451413e+09
 1.09451421e+09 1.09451430e+09 1.09451438e+09 1.09451447e+09
 1.09451455e+09 1.09451464e+09 1.09451472e+09 1.09451481e+09
 1.09451489e+09 1.09451498e+09 1.09451506e+09 1.09451515e+09
 1.09451523e+09 1.09451532e+09 1.09451540e+09 1.09451549e+09
 1.09451557e+09 1.09451566e+09 1.09451574e+09 1.09451583e+09
 1.09451591e+09 1.09451600e+09 1.09451608e+09 1.09451617e+09
 1.09451625e+09 1.09451633e+09 1.09451642e+09 1.09451650e+09
 1.09451659e+09 1.09451667e+09 1.09451676e+09 1.09451684e+09
 1.09451693e+09 1.09451701e+09 1.09451710e+09 1.09451718e+09
 1.09451727e+09 1.09451735e+09 1.09451744e+09 1.09451752e+09
 1.09451761e+09 1.09451769e+09 1.09451778e+09 1.09451786e+09
 1.09451795e+09 1.09451803e+09 1.09451812e+09 1.09451820e+09
 1.09451829e+09 1.09451837e+09 1.09451846e+09 1.09451854e+09
 1.09451863e+09 1.09451871e+09 1.09451879e+09 1.09451888e+09
 1.09451896e+09 1.09451905e+09 1.09451913e+09 1.09451922e+09
 1.09451930e+09 1.09451939e+09 1.09451947e+09 1.09451956e+09
 1.09451964e+09 1.09451973e+09 1.09451981e+09 1.09451990e+09
 1.09451998e+09 1.09452007e+09 1.09452015e+09 1.09452024e+09
 1.09452032e+09 1.09452041e+09 1.09452049e+09 1.09452058e+09
 1.09452066e+09 1.09452075e+09 1.09452083e+09 1.09452092e+09
 1.09452100e+09 1.09452109e+09 1.09452117e+09 1.09452126e+09
 1.09452134e+09 1.09452142e+09 1.09452151e+09 1.09452159e+09
 1.09452168e+09 1.09452176e+09 1.09452185e+09 1.09452193e+09
 1.09452202e+09 1.09452210e+09 1.09452219e+09 1.09452227e+09
 1.09452236e+09 1.09452244e+09 1.09452253e+09 1.09452261e+09
 1.09452270e+09 1.09452278e+09 1.09452287e+09 1.09452295e+09
 1.09452304e+09 1.09452312e+09 1.09452321e+09 1.09452329e+09
 1.09452338e+09 1.09452346e+09 1.09452355e+09 1.09452363e+09
 1.09452372e+09 1.09452380e+09 1.09452389e+09 1.09452397e+09
 1.09452405e+09 1.09452414e+09 1.09452422e+09 1.09452431e+09
 1.09452439e+09 1.09452448e+09 1.09452456e+09 1.09452465e+09
 1.09452473e+09 1.09452482e+09 1.09452490e+09 1.09452499e+09
 1.09452507e+09 1.09452516e+09 1.09452524e+09 1.09452533e+09
 1.09452541e+09 1.09452550e+09 1.09452558e+09 1.09452567e+09
 1.09452575e+09 1.09452584e+09 1.09452592e+09 1.09452601e+09
 1.09452609e+09 1.09452618e+09 1.09452626e+09 1.09452635e+09
 1.09452643e+09 1.09452651e+09 1.09452660e+09 1.09452668e+09
 1.09452677e+09 1.09452685e+09 1.09452694e+09 1.09452702e+09
 1.09452711e+09 1.09452719e+09 1.09452728e+09 1.09452736e+09
 1.09452745e+09 1.09452753e+09 1.09452762e+09 1.09452770e+09
 1.09452779e+09 1.09452787e+09 1.09452796e+09 1.09452804e+09
 1.09452813e+09 1.09452821e+09 1.09452830e+09 1.09452838e+09
 1.09452847e+09 1.09452855e+09 1.09452864e+09 1.09452872e+09
 1.09452881e+09 1.09452889e+09 1.09452898e+09 1.09452906e+09
 1.09452914e+09 1.09452923e+09 1.09452931e+09 1.09452940e+09
 1.09452948e+09 1.09452957e+09 1.09452965e+09 1.09452974e+09
 1.09452982e+09 1.09452991e+09 1.09452999e+09 1.09453008e+09
 1.09453016e+09 1.09453025e+09 1.09453033e+09 1.09453042e+09
 1.09453050e+09 1.09453059e+09 1.09453067e+09 1.09453076e+09
 1.09453084e+09 1.09453093e+09 1.09453101e+09 1.09453110e+09
 1.09453118e+09 1.09453127e+09 1.09453135e+09 1.09453144e+09
 1.09453152e+09 1.09453160e+09 1.09453169e+09 1.09453177e+09
 1.09453186e+09 1.09453194e+09 1.09453203e+09 1.09453211e+09
 1.09453220e+09 1.09453228e+09 1.09453237e+09 1.09453245e+09
 1.09453254e+09 1.09453262e+09 1.09453271e+09 1.09453279e+09
 1.09453288e+09 1.09453296e+09 1.09453305e+09 1.09453313e+09
 1.09453322e+09 1.09453330e+09 1.09453339e+09 1.09453347e+09
 1.09453356e+09 1.09453364e+09 1.09453373e+09 1.09453381e+09
 1.09453390e+09 1.09453398e+09 1.09453407e+09 1.09453415e+09
 1.09453423e+09 1.09453432e+09 1.09453440e+09 1.09453449e+09
 1.09453457e+09 1.09453466e+09 1.09453474e+09 1.09453483e+09
 1.09453491e+09 1.09453500e+09 1.09453508e+09 1.09453517e+09
 1.09453525e+09 1.09453534e+09 1.09453542e+09 1.09453551e+09
 1.09453559e+09 1.09453568e+09 1.09453576e+09 1.09453585e+09
 1.09453593e+09 1.09453602e+09 1.09453610e+09 1.09453619e+09
 1.09453627e+09 1.09453636e+09 1.09453644e+09 1.09453653e+09
 1.09453661e+09 1.09453670e+09 1.09453678e+09 1.09453686e+09
 1.09453695e+09 1.09453703e+09 1.09453712e+09 1.09453720e+09
 1.09453729e+09 1.09453737e+09 1.09453746e+09 1.09453754e+09
 1.09453763e+09 1.09453771e+09 1.09453780e+09 1.09453788e+09
 1.09453797e+09 1.09453805e+09 1.09453814e+09 1.09453822e+09
 1.09453831e+09 1.09453839e+09 1.09453848e+09 1.09453856e+09
 1.09453865e+09 1.09453873e+09 1.09453882e+09 1.09453890e+09
 1.09453899e+09 1.09453907e+09 1.09453916e+09 1.09453924e+09
 1.09453932e+09 1.09453941e+09 1.09453949e+09 1.09453958e+09
 1.09453966e+09 1.09453975e+09 1.09453983e+09 1.09453992e+09
 1.09454000e+09 1.09454009e+09 1.09454017e+09 1.09454026e+09
 1.09454034e+09 1.09454043e+09 1.09454051e+09 1.09454060e+09
 1.09454068e+09 1.09454077e+09 1.09454085e+09 1.09454094e+09
 1.09454102e+09 1.09454111e+09 1.09454119e+09 1.09454128e+09
 1.09454136e+09 1.09454145e+09 1.09454153e+09 1.09454162e+09
 1.09454170e+09 1.09454179e+09 1.09454187e+09 1.09454195e+09
 1.09454204e+09 1.09454212e+09 1.09454221e+09 1.09454229e+09
 1.09454238e+09 1.09454246e+09 1.09454255e+09 1.09454263e+09
 1.09454272e+09 1.09454280e+09 1.09454289e+09 1.09454297e+09
