name =JUICE_ROI_GAN_4_2_04
flyby = ['2034 JUL 11 19:50:31', '2034 JUL 12 19:50:31']
Observation TW = <SpiceCell dtype = 1, length = 0, size = 3400, card = 14, is_set = 1, adjust = 0, init = 1, base = 94726014130240, data = 94726014130288>
Res(t) = [2.47545184 2.47282381 2.47020053 2.46758202 2.46496829 2.46235933
 2.45975515 2.45715576 2.45456116 2.45197135 2.44938635 2.44680614
 2.44423075 2.44166016 2.4390944  2.43653345 2.43397734 2.43142605
 2.4288796  2.42633799 2.42380122 2.4212693  2.41874224 2.41622003
 2.41370269 2.41119021 2.4086826  2.40617987 2.40368202 2.40118906
 2.39870098 2.3962178  2.39373951 2.39126613 2.38879766 2.38633409
 2.38387545 2.38142172 2.37897292 2.37652904 2.3740901  2.3716561
 2.36922704 2.36680293 2.36438376 2.36196956 2.35956031 2.35715602
 2.35475671 2.35236237 2.349973   2.34758862 2.34520922 2.34283481
 2.3404654  2.33810098 2.33574157 2.33338716 2.33103777 2.32869339
 2.32635403 2.3240197  2.32169039 2.31936612 2.31704688 2.31473268
 2.31242353 2.31011943 2.30782038 2.30552639 2.30323746 2.3009536
 2.2986748  2.29640108 2.29413244 2.29186888 2.28961041 2.28735702
 2.28510874 2.28286554 2.28062746 2.27839447 2.2761666  2.27394384
 2.2717262  2.26951369 2.2673063  2.26510403 2.26290691 2.26071492
 2.25852807 2.25634637 2.25416981 2.25199841 2.24983217 2.24767109
 2.24551517 2.24336442 2.24121885 2.23907845 2.23694323 2.23481319
 2.23268834 2.23056868 2.22845421 2.22634494 2.22424088 2.22214202
 2.22004837 2.21795993 2.2158767  2.2137987  2.21172592 2.20965836
 2.20759604 2.20553895 2.2034871  2.20144048 2.19939911 2.19736299
 2.19533212 2.1933065  2.19128614 2.18927104 2.1872612  2.18525664
 2.18325734 2.18126331 2.17927456 2.1772911  2.17531291 2.17334001
 2.1713724  2.16941009 2.16745307 2.16550135 2.16355493 2.16161381
 2.159678   2.15774751 2.15582233 2.15390246 2.15198791 2.15007869
 2.14817479 2.14627622 2.14438298 2.14249508 2.14061251 2.13873528
 2.1368634  2.13499685 2.13313566 2.13127982 2.12942933 2.12758419
 2.12574441 2.12391    2.12208094 2.12025725 2.11843893 2.11662598
 2.11481841 2.11301621 2.11121938 2.10942794 2.10764188 2.1058612
 2.10408591 2.10231601 2.10055151 2.09879239 2.09703867 2.09529035
 2.09354743 2.09180991 2.0900778  2.08835109 2.08662979 2.0849139
 2.08320342 2.08149836 2.07979871 2.07810448 2.07641567 2.07473228
 2.07305432 2.07138178 2.06971466 2.06805298 2.06639672 2.06474589
 2.0631005  2.06146055 2.05982603 2.05819694 2.0565733  2.0549551
 2.05334234 2.05173502 2.05013314 2.04853672 2.04694574 2.04536021
 2.04378013 2.0422055  2.04063632 2.03907259 2.03751432 2.0359615
 2.03441414 2.03287224 2.0313358  2.02980481 2.02827929 2.02675923
 2.02524462 2.02373548 2.02223181 2.0207336  2.01924085 2.01775357
 2.01627175 2.0147954  2.01332452 2.0118591  2.01039916 2.00894468
 2.00749567 2.00605213 2.00461406 2.00318146 2.00175433 2.00033267
 1.99891648 1.99750576 1.99610051 1.99470073 1.99330643 1.99191759
 1.99053423 1.98915634 1.98778392 1.98641697 1.98505549 1.98369948
 1.98234894 1.98100387 1.97966427 1.97833014 1.97700148 1.97567829
 1.97436056 1.9730483  1.97174151 1.97044019 1.96914433 1.96785394
 1.96656901 1.96528955 1.96401555 1.96274701 1.96148393 1.96022631
 1.95897416 1.95772746 1.95648622 1.95525043 1.9540201  1.95279523
 1.95157581 1.95036184 1.94915332 1.94795026 1.94675264 1.94556046
 1.94437374 1.94319246 1.94201662 1.94084622 1.93968126 1.93852174
 1.93736766 1.93621901 1.93507579 1.93393801 1.93280566 1.93167873
 1.93055723 1.92944116 1.92833051 1.92722527 1.92612546 1.92503106
 1.92394208 1.92285851 1.92178035 1.9207076  1.91964025 1.9185783
 1.91752176 1.91647062 1.91542487 1.91438451 1.91334955 1.91231997
 1.91129579 1.91027698 1.90926356 1.90825551 1.90725284 1.90625554
 1.90526362 1.90427706 1.90329586 1.90232002 1.90134955 1.90038443
 1.89942466 1.89847024 1.89752116 1.89657743 1.89563904 1.89470599
 1.89377826 1.89285587 1.89193881 1.89102706 1.89012064 1.88921954
 1.88832374 1.88743326 1.88654808 1.8856682  1.88479362 1.88392433
 1.88306034 1.88220163 1.8813482  1.88050006 1.87965718 1.87881958
 1.87798725 1.87716018 1.87633837 1.87552181 1.8747105  1.87390444
 1.87310363 1.87230805 1.8715177  1.87073258 1.86995269 1.86917802
 1.86840856 1.86764431 1.86688528 1.86613144 1.8653828  1.86463935
 1.86390109 1.86316802 1.86244012 1.8617174  1.86099985 1.86028745
 1.85958022 1.85887814 1.85818122 1.85748943 1.85680278 1.85612127
 1.85544488 1.85477362 1.85410748 1.85344645 1.85279052 1.8521397
 1.85149397 1.85085334 1.85021779 1.84958731 1.84896192 1.84834159
 1.84772633 1.84711612 1.84651096 1.84591085 1.84531578 1.84472574
 1.84414074 1.84356075 1.84298578 1.84241582 1.84185087 1.84129091
 1.84073595 1.84018597 1.83964098 1.83910095 1.8385659  1.8380358
 1.83751066 1.83699047 1.83647522 1.83596491 1.83545953 1.83495907
 1.83446352 1.83397289 1.83348716 1.83300632 1.83253038 1.83205932
 1.83159313 1.83113182 1.83067537 1.83022377 1.82977703 1.82933512
 1.82889805 1.82846581 1.82803839 1.82761579 1.82719799 1.82678499
 1.82637679 1.82597337 1.82557473 1.82518087 1.82479176 1.82440742
 1.82402782 1.82365297 1.82328285 1.82291746 1.82255678 1.82220082
 1.82184957 1.82150301 1.82116115 1.82082396 1.82049145 1.82016361
 1.81984042 1.81952189 1.819208   1.81889875 1.81859413 1.81829412
 1.81799873 1.81770794 1.81742175 1.81714015 1.81686313 1.81659068
 1.8163228  1.81605947 1.81580069 1.81554645 1.81529675 1.81505156
 1.81481089 1.81457473 1.81434307 1.8141159  1.81389322 1.813675
 1.81346125 1.81325196 1.81304712 1.81284672 1.81265075 1.81245921
 1.81227208 1.81208935 1.81191102 1.81173709 1.81156753 1.81140234
 1.81124152 1.81108505 1.81093293 1.81078515 1.81064169 1.81050255
 1.81036773 1.8102372  1.81011097 1.80998902 1.80987135 1.80975794
 1.80964879 1.80954389 1.80944322 1.80934679 1.80925458 1.80916658
 1.80908278 1.80900318 1.80892776 1.80885652 1.80878944 1.80872652
 1.80866775 1.80861311 1.80856261 1.80851622 1.80847395 1.80843578
 1.8084017  1.8083717  1.80834577 1.80832391 1.80830611 1.80829235
 1.80828262 1.80827693 1.80827524 1.80827757 1.80828389 1.8082942
 1.80830849 1.80832675 1.80834897 1.80837514 1.80840525 1.80843929
 1.80847725 1.80851912 1.8085649  1.80861456 1.80866811 1.80872553
 1.80878682 1.80885195 1.80892093 1.80899375 1.80907038 1.80915083
 1.80923509 1.80932314 1.80941497 1.80951058 1.80960995 1.80971308
 1.80981996 1.80993056 1.8100449  1.81016294 1.8102847  1.81041015
 1.81053928 1.81067209 1.81080857 1.8109487  1.81109247 1.81123988
 1.81139092 1.81154557 1.81170383 1.81186568 1.81203111 1.81220013
 1.8123727  1.81254884 1.81272851 1.81291172 1.81309846 1.81328871
 1.81348246 1.81367971 1.81388044 1.81408465 1.81429232 1.81450344
 1.81471801 1.81493601 1.81515743 1.81538227 1.81561051 1.81584214
 1.81607715 1.81631553 1.81655728 1.81680238 1.81705082 1.81730259
 1.81755768 1.81781608 1.81807778 1.81834277 1.81861104 1.81888258
 1.81915738 1.81943543 1.81971672 1.82000123 1.82028897 1.82057991
 1.82087405 1.82117138 1.82147188 1.82177555 1.82208238 1.82239235
 1.82270546 1.82302169 1.82334104 1.8236635  1.82398904 1.82431768
 1.82464939 1.82498416 1.82532198 1.82566285 1.82600675 1.82635367
 1.82670361 1.82705654 1.82741247 1.82777138 1.82813326 1.8284981
 1.8288659  1.82923663 1.82961029 1.82998687 1.83036636 1.83074875
 1.83113403 1.83152219 1.83191322 1.8323071  1.83270383 1.8331034
 1.83350579 1.83391101 1.83431903 1.83472984 1.83514344 1.83555982
 1.83597896 1.83640086 1.8368255  1.83725288 1.83768299 1.8381158
 1.83855133 1.83898954 1.83943044 1.83987402 1.84032025 1.84076914
 1.84122068 1.84167484 1.84213163 1.84259104 1.84305304 1.84351764
 1.84398482 1.84445457 1.84492688 1.84540175 1.84587915 1.84635909
 1.84684155 1.84732652 1.847814   1.84830396 1.8487964  1.84929132
 1.8497887  1.85028853 1.8507908  1.8512955  1.85180262 1.85231215
 1.85282409 1.85333841 1.85385512 1.8543742  1.85489564 1.85541943
 1.85594556 1.85647402 1.85700481 1.8575379  1.8580733  1.85861099
 1.85915096 1.8596932  1.86023771 1.86078447 1.86133347 1.8618847
 1.86243816 1.86299383 1.8635517  1.86411176 1.86467401 1.86523844
 1.86580503 1.86637377 1.86694466 1.86751768 1.86809283 1.86867009
 1.86924946 1.86983093 1.87041448 1.87100011 1.87158781 1.87217757
 1.87276937 1.87336322 1.87395909 1.87455698 1.87515689 1.87575879
 1.87636268 1.87696856 1.87757641 1.87818622 1.87879799 1.87941169
 1.88002734 1.88064491 1.88126439 1.88188578 1.88250907 1.88313424
 1.88376129 1.88439022 1.885021   1.88565363 1.8862881  1.88692441
 1.88756253 1.88820247 1.88884422 1.88948776 1.89013308 1.89078018
 1.89142905 1.89207968 1.89273206 1.89338617 1.89404202 1.89469959
 1.89535887 1.89601986 1.89668254 1.8973469  1.89801295 1.89868066
 1.89935003 1.90002105 1.90069371 1.901368   1.90204392 1.90272145
 1.90340058 1.90408132 1.90476364 1.90544754 1.90613301 1.90682004
 1.90750862 1.90819875 1.90889041 1.9095836  1.91027831 1.91097452
 1.91167224 1.91237145 1.91307214 1.91377431 1.91447794 1.91518303
 1.91588957 1.91659755 1.91730697 1.9180178  1.91873005 1.91944371
 1.92015877 1.92087521 1.92159304 1.92231224 1.9230328  1.92375472
 1.92447799 1.9252026  1.92592854 1.92665581 1.92738439 1.92811427
 1.92884545 1.92957793 1.93031169 1.93104672 1.93178301 1.93252057
 1.93325937 1.93399942 1.9347407  1.9354832  1.93622692 1.93697186
 1.93771799 1.93846532 1.93921383 1.93996352 1.94071438 1.94146641
 1.94221958 1.94297391 1.94372937 1.94448596 1.94524368 1.94600251
 1.94676245 1.94752349 1.94828562 1.94904883 1.94981313 1.95057849
 1.95134491 1.95211239 1.95288091 1.95365047 1.95442107 1.95519268
 1.95596532 1.95673896 1.9575136  1.95828924 1.95906587 1.95984347
 1.96062205 1.96140159 1.96218208 1.96296353 1.96374592 1.96452924
 1.9653135  1.96609867 1.96688476 1.96767175 1.96845964 1.96924843
 1.9700381  1.97082864 1.97162006 1.97241234 1.97320548 1.97399947
 1.9747943  1.97558997 1.97638646 1.97718378 1.97798191 1.97878085
 1.97958059 1.98038113 1.98118245 1.98198455 1.98278743 1.98359107
 1.98439547 1.98520063 1.98600654 1.98681318 1.98762056 1.98842866
 1.98923749 1.99004703 1.99085727 1.99166822 1.99247986 1.99329218
 1.99410519 1.99491887 1.99573322 1.99654824 1.9973639  1.99818022
 1.99899718 1.99981477 2.000633   2.00145184 2.00227131 2.00309138
 2.00391206 2.00473334 2.00555521 2.00637767 2.0072007  2.00802431
 2.00884849 2.00967323 2.01049852 2.01132436 2.01215075 2.01297768
 2.01380513 2.01463311 2.01546161 2.01629063 2.01712015 2.01795017
 2.01878069 2.0196117  2.02044319 2.02127516 2.02210761 2.02294052
 2.02377389 2.02460772 2.025442   2.02627672 2.02711188 2.02794747
 2.02878349 2.02961993 2.03045679 2.03129406 2.03213173 2.03296981
 2.03380827 2.03464713 2.03548637 2.03632599 2.03716597 2.03800633
 2.03884705 2.03968812 2.04052955 2.04137132 2.04221343 2.04305588
 2.04389865 2.04474175 2.04558517 2.04642891 2.04727295 2.0481173
 2.04896195 2.04980689 2.05065212 2.05149764 2.05234343 2.0531895
 2.05403584 2.05488244 2.0557293  2.05657641 2.05742377 2.05827138
 2.05911923 2.05996731 2.06081562 2.06166416 2.06251292 2.06336189
 2.06421107 2.06506046 2.06591005 2.06675984 2.06760982 2.06845999
 2.06931035 2.07016088 2.07101158 2.07186245 2.07271349 2.07356469
 2.07441605 2.07526755 2.07611921 2.076971   2.07782294 2.078675
 2.0795272  2.08037952 2.08123197 2.08208453 2.0829372  2.08378998
 2.08464287 2.08549585 2.08634893 2.0872021  2.08805536 2.08890871
 2.08976213 2.09061562 2.09146919 2.09232282]
t = [1.08953230e+09 1.08953239e+09 1.08953247e+09 1.08953256e+09
 1.08953265e+09 1.08953273e+09 1.08953282e+09 1.08953291e+09
 1.08953299e+09 1.08953308e+09 1.08953317e+09 1.08953325e+09
 1.08953334e+09 1.08953342e+09 1.08953351e+09 1.08953360e+09
 1.08953368e+09 1.08953377e+09 1.08953386e+09 1.08953394e+09
 1.08953403e+09 1.08953412e+09 1.08953420e+09 1.08953429e+09
 1.08953438e+09 1.08953446e+09 1.08953455e+09 1.08953464e+09
 1.08953472e+09 1.08953481e+09 1.08953489e+09 1.08953498e+09
 1.08953507e+09 1.08953515e+09 1.08953524e+09 1.08953533e+09
 1.08953541e+09 1.08953550e+09 1.08953559e+09 1.08953567e+09
 1.08953576e+09 1.08953585e+09 1.08953593e+09 1.08953602e+09
 1.08953611e+09 1.08953619e+09 1.08953628e+09 1.08953637e+09
 1.08953645e+09 1.08953654e+09 1.08953662e+09 1.08953671e+09
 1.08953680e+09 1.08953688e+09 1.08953697e+09 1.08953706e+09
 1.08953714e+09 1.08953723e+09 1.08953732e+09 1.08953740e+09
 1.08953749e+09 1.08953758e+09 1.08953766e+09 1.08953775e+09
 1.08953784e+09 1.08953792e+09 1.08953801e+09 1.08953809e+09
 1.08953818e+09 1.08953827e+09 1.08953835e+09 1.08953844e+09
 1.08953853e+09 1.08953861e+09 1.08953870e+09 1.08953879e+09
 1.08953887e+09 1.08953896e+09 1.08953905e+09 1.08953913e+09
 1.08953922e+09 1.08953931e+09 1.08953939e+09 1.08953948e+09
 1.08953957e+09 1.08953965e+09 1.08953974e+09 1.08953982e+09
 1.08953991e+09 1.08954000e+09 1.08954008e+09 1.08954017e+09
 1.08954026e+09 1.08954034e+09 1.08954043e+09 1.08954052e+09
 1.08954060e+09 1.08954069e+09 1.08954078e+09 1.08954086e+09
 1.08954095e+09 1.08954104e+09 1.08954112e+09 1.08954121e+09
 1.08954129e+09 1.08954138e+09 1.08954147e+09 1.08954155e+09
 1.08954164e+09 1.08954173e+09 1.08954181e+09 1.08954190e+09
 1.08954199e+09 1.08954207e+09 1.08954216e+09 1.08954225e+09
 1.08954233e+09 1.08954242e+09 1.08954251e+09 1.08954259e+09
 1.08954268e+09 1.08954277e+09 1.08954285e+09 1.08954294e+09
 1.08954302e+09 1.08954311e+09 1.08954320e+09 1.08954328e+09
 1.08954337e+09 1.08954346e+09 1.08954354e+09 1.08954363e+09
 1.08954372e+09 1.08954380e+09 1.08954389e+09 1.08954398e+09
 1.08954406e+09 1.08954415e+09 1.08954424e+09 1.08954432e+09
 1.08954441e+09 1.08954449e+09 1.08954458e+09 1.08954467e+09
 1.08954475e+09 1.08954484e+09 1.08954493e+09 1.08954501e+09
 1.08954510e+09 1.08954519e+09 1.08954527e+09 1.08954536e+09
 1.08954545e+09 1.08954553e+09 1.08954562e+09 1.08954571e+09
 1.08954579e+09 1.08954588e+09 1.08954597e+09 1.08954605e+09
 1.08954614e+09 1.08954622e+09 1.08954631e+09 1.08954640e+09
 1.08954648e+09 1.08954657e+09 1.08954666e+09 1.08954674e+09
 1.08954683e+09 1.08954692e+09 1.08954700e+09 1.08954709e+09
 1.08954718e+09 1.08954726e+09 1.08954735e+09 1.08954744e+09
 1.08954752e+09 1.08954761e+09 1.08954769e+09 1.08954778e+09
 1.08954787e+09 1.08954795e+09 1.08954804e+09 1.08954813e+09
 1.08954821e+09 1.08954830e+09 1.08954839e+09 1.08954847e+09
 1.08954856e+09 1.08954865e+09 1.08954873e+09 1.08954882e+09
 1.08954891e+09 1.08954899e+09 1.08954908e+09 1.08954917e+09
 1.08954925e+09 1.08954934e+09 1.08954942e+09 1.08954951e+09
 1.08954960e+09 1.08954968e+09 1.08954977e+09 1.08954986e+09
 1.08954994e+09 1.08955003e+09 1.08955012e+09 1.08955020e+09
 1.08955029e+09 1.08955038e+09 1.08955046e+09 1.08955055e+09
 1.08955064e+09 1.08955072e+09 1.08955081e+09 1.08955089e+09
 1.08955098e+09 1.08955107e+09 1.08955115e+09 1.08955124e+09
 1.08955133e+09 1.08955141e+09 1.08955150e+09 1.08955159e+09
 1.08955167e+09 1.08955176e+09 1.08955185e+09 1.08955193e+09
 1.08955202e+09 1.08955211e+09 1.08955219e+09 1.08955228e+09
 1.08955237e+09 1.08955245e+09 1.08955254e+09 1.08955262e+09
 1.08955271e+09 1.08955280e+09 1.08955288e+09 1.08955297e+09
 1.08955306e+09 1.08955314e+09 1.08955323e+09 1.08955332e+09
 1.08955340e+09 1.08955349e+09 1.08955358e+09 1.08955366e+09
 1.08955375e+09 1.08955384e+09 1.08955392e+09 1.08955401e+09
 1.08955409e+09 1.08955418e+09 1.08955427e+09 1.08955435e+09
 1.08955444e+09 1.08955453e+09 1.08955461e+09 1.08955470e+09
 1.08955479e+09 1.08955487e+09 1.08955496e+09 1.08955505e+09
 1.08955513e+09 1.08955522e+09 1.08955531e+09 1.08955539e+09
 1.08955548e+09 1.08955557e+09 1.08955565e+09 1.08955574e+09
 1.08955582e+09 1.08955591e+09 1.08955600e+09 1.08955608e+09
 1.08955617e+09 1.08955626e+09 1.08955634e+09 1.08955643e+09
 1.08955652e+09 1.08955660e+09 1.08955669e+09 1.08955678e+09
 1.08955686e+09 1.08955695e+09 1.08955704e+09 1.08955712e+09
 1.08955721e+09 1.08955729e+09 1.08955738e+09 1.08955747e+09
 1.08955755e+09 1.08955764e+09 1.08955773e+09 1.08955781e+09
 1.08955790e+09 1.08955799e+09 1.08955807e+09 1.08955816e+09
 1.08955825e+09 1.08955833e+09 1.08955842e+09 1.08955851e+09
 1.08955859e+09 1.08955868e+09 1.08955877e+09 1.08955885e+09
 1.08955894e+09 1.08955902e+09 1.08955911e+09 1.08955920e+09
 1.08955928e+09 1.08955937e+09 1.08955946e+09 1.08955954e+09
 1.08955963e+09 1.08955972e+09 1.08955980e+09 1.08955989e+09
 1.08955998e+09 1.08956006e+09 1.08956015e+09 1.08956024e+09
 1.08956032e+09 1.08956041e+09 1.08956049e+09 1.08956058e+09
 1.08956067e+09 1.08956075e+09 1.08956084e+09 1.08956093e+09
 1.08956101e+09 1.08956110e+09 1.08956119e+09 1.08956127e+09
 1.08956136e+09 1.08956145e+09 1.08956153e+09 1.08956162e+09
 1.08956171e+09 1.08956179e+09 1.08956188e+09 1.08956197e+09
 1.08956205e+09 1.08956214e+09 1.08956222e+09 1.08956231e+09
 1.08956240e+09 1.08956248e+09 1.08956257e+09 1.08956266e+09
 1.08956274e+09 1.08956283e+09 1.08956292e+09 1.08956300e+09
 1.08956309e+09 1.08956318e+09 1.08956326e+09 1.08956335e+09
 1.08956344e+09 1.08956352e+09 1.08956361e+09 1.08956369e+09
 1.08956378e+09 1.08956387e+09 1.08956395e+09 1.08956404e+09
 1.08956413e+09 1.08956421e+09 1.08956430e+09 1.08956439e+09
 1.08956447e+09 1.08956456e+09 1.08956465e+09 1.08956473e+09
 1.08956482e+09 1.08956491e+09 1.08956499e+09 1.08956508e+09
 1.08956517e+09 1.08956525e+09 1.08956534e+09 1.08956542e+09
 1.08956551e+09 1.08956560e+09 1.08956568e+09 1.08956577e+09
 1.08956586e+09 1.08956594e+09 1.08956603e+09 1.08956612e+09
 1.08956620e+09 1.08956629e+09 1.08956638e+09 1.08956646e+09
 1.08956655e+09 1.08956664e+09 1.08956672e+09 1.08956681e+09
 1.08956689e+09 1.08956698e+09 1.08956707e+09 1.08956715e+09
 1.08956724e+09 1.08956733e+09 1.08956741e+09 1.08956750e+09
 1.08956759e+09 1.08956767e+09 1.08956776e+09 1.08956785e+09
 1.08956793e+09 1.08956802e+09 1.08956811e+09 1.08956819e+09
 1.08956828e+09 1.08956837e+09 1.08956845e+09 1.08956854e+09
 1.08956862e+09 1.08956871e+09 1.08956880e+09 1.08956888e+09
 1.08956897e+09 1.08956906e+09 1.08956914e+09 1.08956923e+09
 1.08956932e+09 1.08956940e+09 1.08956949e+09 1.08956958e+09
 1.08956966e+09 1.08956975e+09 1.08956984e+09 1.08956992e+09
 1.08957001e+09 1.08957009e+09 1.08957018e+09 1.08957027e+09
 1.08957035e+09 1.08957044e+09 1.08957053e+09 1.08957061e+09
 1.08957070e+09 1.08957079e+09 1.08957087e+09 1.08957096e+09
 1.08957105e+09 1.08957113e+09 1.08957122e+09 1.08957131e+09
 1.08957139e+09 1.08957148e+09 1.08957157e+09 1.08957165e+09
 1.08957174e+09 1.08957182e+09 1.08957191e+09 1.08957200e+09
 1.08957208e+09 1.08957217e+09 1.08957226e+09 1.08957234e+09
 1.08957243e+09 1.08957252e+09 1.08957260e+09 1.08957269e+09
 1.08957278e+09 1.08957286e+09 1.08957295e+09 1.08957304e+09
 1.08957312e+09 1.08957321e+09 1.08957329e+09 1.08957338e+09
 1.08957347e+09 1.08957355e+09 1.08957364e+09 1.08957373e+09
 1.08957381e+09 1.08957390e+09 1.08957399e+09 1.08957407e+09
 1.08957416e+09 1.08957425e+09 1.08957433e+09 1.08957442e+09
 1.08957451e+09 1.08957459e+09 1.08957468e+09 1.08957477e+09
 1.08957485e+09 1.08957494e+09 1.08957502e+09 1.08957511e+09
 1.08957520e+09 1.08957528e+09 1.08957537e+09 1.08957546e+09
 1.08957554e+09 1.08957563e+09 1.08957572e+09 1.08957580e+09
 1.08957589e+09 1.08957598e+09 1.08957606e+09 1.08957615e+09
 1.08957624e+09 1.08957632e+09 1.08957641e+09 1.08957649e+09
 1.08957658e+09 1.08957667e+09 1.08957675e+09 1.08957684e+09
 1.08957693e+09 1.08957701e+09 1.08957710e+09 1.08957719e+09
 1.08957727e+09 1.08957736e+09 1.08957745e+09 1.08957753e+09
 1.08957762e+09 1.08957771e+09 1.08957779e+09 1.08957788e+09
 1.08957797e+09 1.08957805e+09 1.08957814e+09 1.08957822e+09
 1.08957831e+09 1.08957840e+09 1.08957848e+09 1.08957857e+09
 1.08957866e+09 1.08957874e+09 1.08957883e+09 1.08957892e+09
 1.08957900e+09 1.08957909e+09 1.08957918e+09 1.08957926e+09
 1.08957935e+09 1.08957944e+09 1.08957952e+09 1.08957961e+09
 1.08957969e+09 1.08957978e+09 1.08957987e+09 1.08957995e+09
 1.08958004e+09 1.08958013e+09 1.08958021e+09 1.08958030e+09
 1.08958039e+09 1.08958047e+09 1.08958056e+09 1.08958065e+09
