name =JUICE_ROI_GAN_6_1_06
flyby = ['2033 NOV 26 18:22:11', '2033 NOV 27 18:22:11']
Observation TW = <SpiceCell dtype = 1, length = 0, size = 2400, card = 4, is_set = 1, adjust = 0, init = 1, base = 93975236749408, data = 93975236749456>
Res(t) = [0.61157166 0.61330669 0.61505304 0.61681037 0.61857838 0.62035677
 0.62214523 0.62394348 0.62575127 0.62756831 0.62939436 0.63122917
 0.6330725  0.63492411 0.63678379 0.63865132 0.64052649 0.64240909
 0.64429893 0.64619582 0.64809957 0.65001    0.65192694 0.65385022
 0.65577969 0.65771517 0.65965651 0.66160357 0.6635562  0.66551426
 0.66747762 0.66944613 0.67141968 0.67339813 0.67538136 0.67736926
 0.67936171 0.68135859 0.68335981 0.68536524 0.6873748  0.68938838
 0.69140587 0.6934272  0.69545225 0.69748096 0.69951321 0.70154894
 0.70358806 0.70563048 0.70767613 0.70972493 0.71177681 0.71383168
 0.71588949 0.71795016 0.72001363 0.72207982 0.72414867 0.72622013
 0.72829412 0.73037059 0.73244949 0.73453074 0.73661431 0.73870012
 0.74078814 0.74287831 0.74497057 0.74706489 0.7491612  0.75125946
 0.75335964 0.75546167 0.75756552 0.75967115 0.76177851 0.76388756
 0.76599827 0.76811058 0.77022448 0.7723399  0.77445683 0.77657522
 0.77869504 0.78081625 0.78293883 0.78506273 0.78718793 0.78931439
 0.79144208 0.79357098 0.79570106 0.79783227 0.79996461 0.80209803
 0.80423252 0.80636804 0.80850457 0.81064208 0.81278055 0.81491996
 0.81706028 0.81920148 0.82134355 0.82348646 0.82563019 0.82777472
 0.82992002 0.83206608 0.83421288 0.83636039 0.8385086  0.84065749
 0.84280704 0.84495722 0.84710803 0.84925944 0.85141144 0.85356401
 0.85571714 0.8578708  0.86002498 0.86217967 0.86433485 0.8664905
 0.86864662 0.87080318 0.87296017 0.87511758 0.87727539 0.8794336
 0.88159218 0.88375112 0.88591042 0.88807005 0.89023002 0.89239029
 0.89455088 0.89671175 0.8988729  0.90103432 0.903196   0.90535793
 0.9075201  0.90968249 0.9118451  0.91400791 0.91617092 0.91833412
 0.9204975  0.92266105 0.92482475 0.92698861 0.92915261 0.93131674
 0.933481   0.93564537 0.93780985 0.93997444 0.94213911 0.94430388
 0.94646872 0.94863363 0.9507986  0.95296363 0.95512871 0.95729383
 0.95945899 0.96162417 0.96378938 0.9659546  0.96811984 0.97028507
 0.97245031 0.97461553 0.97678075 0.97894594 0.9811111  0.98327624
 0.98544134 0.9876064  0.98977141 0.99193637 0.99410127 0.99626611
 0.99843089 1.00059559 1.00276021 1.00492476 1.00708922 1.00925359
 1.01141787 1.01358205 1.01574613 1.0179101  1.02007396 1.0222377
 1.02440133 1.02656484 1.02872822 1.03089147 1.03305459 1.03521758
 1.03738042 1.03954312 1.04170567 1.04386808 1.04603033 1.04819242
 1.05035436 1.05251614 1.05467775 1.05683919 1.05900046 1.06116156
 1.06332248 1.06548323 1.06764379 1.06980417 1.07196436 1.07412437
 1.07628418 1.0784438  1.08060322 1.08276245 1.08492147 1.0870803
 1.08923891 1.09139733 1.09355553 1.09571352 1.0978713  1.10002887
 1.10218622 1.10434335 1.10650026 1.10865695 1.11081342 1.11296966
 1.11512567 1.11728146 1.11943702 1.12159234 1.12374744 1.12590229
 1.12805692 1.13021131 1.13236545 1.13451936 1.13667303 1.13882646
 1.14097964 1.14313258 1.14528527 1.14743772 1.14958992 1.15174187
 1.15389357 1.15604502 1.15819622 1.16034716 1.16249786 1.16464829
 1.16679848 1.1689484  1.17109807 1.17324748 1.17539664 1.17754553
 1.17969416 1.18184254 1.18399065 1.1861385  1.18828609 1.19043341
 1.19258047 1.19472727 1.1968738  1.19902007 1.20116607 1.20331181
 1.20545728 1.20760248 1.20974741 1.21189208 1.21403648 1.21618061
 1.21832447 1.22046807 1.22261139 1.22475445 1.22689723 1.22903975
 1.23118199 1.23332396 1.23546567 1.2376071  1.23974826 1.24188916
 1.24402978 1.24617013 1.2483102  1.25045001 1.25258955 1.25472881
 1.2568678  1.25900652 1.26114497 1.26328315 1.26542106 1.2675587
 1.26969606 1.27183316 1.27396998 1.27610654 1.27824282 1.28037883
 1.28251457 1.28465004 1.28678524 1.28892018 1.29105484 1.29318923
 1.29532336 1.29745721 1.2995908  1.30172412 1.30385717 1.30598995
 1.30812246 1.31025471 1.31238669 1.31451841 1.31664986 1.31878104
 1.32091196 1.32304261 1.325173   1.32730312 1.32943298 1.33156257
 1.33369191 1.33582098 1.33794979 1.34007833 1.34220662 1.34433464
 1.34646241 1.34858991 1.35071716 1.35284414 1.35497087 1.35709734
 1.35922356 1.36134951 1.36347521 1.36560066 1.36772585 1.36985078
 1.37197546 1.37409989 1.37622407 1.37834799 1.38047166 1.38259508
 1.38471825 1.38684118 1.38896385 1.39108627 1.39320845 1.39533038
 1.39745206 1.3995735  1.40169469 1.40381564 1.40593634 1.4080568
 1.41017702 1.412297   1.41441673 1.41653623 1.41865548 1.4207745
 1.42289328 1.42501183 1.42713013 1.4292482  1.43136604 1.43348364
 1.43560101 1.43771814 1.43983505 1.44195172 1.44406816 1.44618437
 1.44830036 1.45041611 1.45253164 1.45464694 1.45676202 1.45887687
 1.4609915  1.46310591 1.46522009 1.46733405 1.4694478  1.47156132
 1.47367462 1.47578771 1.47790058 1.48001323 1.48212566 1.48423789
 1.4863499  1.48846169 1.49057328 1.49268465 1.49479582 1.49690677
 1.49901752 1.50112806 1.50323839 1.50534852 1.50745844 1.50956816
 1.51167767 1.51378699 1.5158961  1.51800502 1.52011373 1.52222225
 1.52433057 1.52643869 1.52854662 1.53065436 1.5327619  1.53486925
 1.5369764  1.53908337 1.54119015 1.54329674 1.54540314 1.54750935
 1.54961538 1.55172123 1.55382689 1.55593237 1.55803767 1.56014278
 1.56224772 1.56435248 1.56645706 1.56856147 1.57066569 1.57276975
 1.57487363 1.57697734 1.57908087 1.58118424 1.58328744 1.58539047
 1.58749333 1.58959602 1.59169855 1.59380092 1.59590312 1.59800516
 1.60010703 1.60220875 1.60431031 1.60641171 1.60851295 1.61061404
 1.61271497 1.61481575 1.61691638 1.61901685 1.62111717 1.62321735
 1.62531737 1.62741725 1.62951698 1.63161656 1.633716   1.6358153
 1.63791445 1.64001347 1.64211234 1.64421108 1.64630967 1.64840813
 1.65050646 1.65260465 1.6547027  1.65680062 1.65889842 1.66099608
 1.66309361 1.66519101 1.66728829 1.66938544 1.67148247 1.67357937
 1.67567615 1.67777281 1.67986934 1.68196576 1.68406206 1.68615824
 1.68825431 1.69035026 1.6924461  1.69454182 1.69663744 1.69873294
 1.70082833 1.70292362 1.70501879 1.70711387 1.70920883 1.7113037
 1.71339845 1.71549311 1.71758767 1.71968213 1.72177649 1.72387075
 1.72596492 1.72805899 1.73015297 1.73224686 1.73434065 1.73643435
 1.73852797 1.7406215  1.74271494 1.74480829 1.74690156 1.74899474
 1.75108785 1.75318087 1.75527381 1.75736667 1.75945946 1.76155217
 1.7636448  1.76573736 1.76782984 1.76992225 1.7720146  1.77410687
 1.77619907 1.77829121 1.78038327 1.78247528 1.78456722 1.78665909
 1.78875091 1.79084266 1.79293436 1.79502599 1.79711757 1.79920909
 1.80130056 1.80339197 1.80548333 1.80757464 1.8096659  1.81175711
 1.81384827 1.81593939 1.81803046 1.82012148 1.82221246 1.8243034
 1.8263943  1.82848516 1.83057598 1.83266676 1.8347575  1.83684821
 1.83893889 1.84102953 1.84312014 1.84521072 1.84730127 1.84939179
 1.85148229 1.85357276 1.8556632  1.85775362 1.85984402 1.86193439
 1.86402475 1.86611509 1.86820541 1.87029571 1.872386   1.87447627
 1.87656653 1.87865677 1.88074701 1.88283724 1.88492745 1.88701766
 1.88910787 1.89119807 1.89328826 1.89537845 1.89746864 1.89955883
 1.90164902 1.90373922 1.90582941 1.90791961 1.91000982 1.91210003
 1.91419025 1.91628048 1.91837072 1.92046097 1.92255123 1.92464151
 1.9267318  1.92882211 1.93091243 1.93300277 1.93509313 1.93718352
 1.93927392 1.94136435 1.9434548  1.94554527 1.94763578 1.94972631
 1.95181687 1.95390746 1.95599808 1.95808873 1.96017942 1.96227014
 1.96436089 1.96645169 1.96854252 1.97063339 1.9727243  1.97481525
 1.97690625 1.97899729 1.98108837 1.9831795  1.98527068 1.98736191
 1.98945319 1.99154452 1.9936359  1.99572733 1.99781882 1.99991036
 2.00200196 2.00409362 2.00618534 2.00827712 2.01036896 2.01246086
 2.01455283 2.01664486 2.01873696 2.02082912 2.02292135 2.02501366
 2.02710603 2.02919848 2.031291   2.03338359 2.03547626 2.03756901
 2.03966183 2.04175473 2.04384771 2.04594078 2.04803393 2.05012716
 2.05222047 2.05431387 2.05640736 2.05850094 2.0605946  2.06268836
 2.06478221 2.06687615 2.06897019 2.07106432 2.07315855 2.07525287
 2.0773473  2.07944182 2.08153645 2.08363117 2.08572601 2.08782094
 2.08991598 2.09201113 2.09410639 2.09620175 2.09829723 2.10039282
 2.10248852 2.10458433 2.10668026 2.10877631 2.11087247 2.11296875
 2.11506516 2.11716168 2.11925832 2.12135509 2.12345198 2.125549
 2.12764615 2.12974342 2.13184082 2.13393835 2.13603601 2.13813381
 2.14023174 2.1423298  2.144428   2.14652634 2.14862481 2.15072342
 2.15282218 2.15492107 2.15702011 2.1591193  2.16121862 2.1633181
 2.16541772 2.16751749 2.16961741 2.17171748 2.17381771 2.17591808
 2.17801861 2.1801193  2.18222014 2.18432114 2.1864223  2.18852362
 2.1906251  2.19272674 2.19482855 2.19693052 2.19903266 2.20113496
 2.20323744 2.20534008 2.20744289 2.20954587 2.21164903 2.21375236
 2.21585587 2.21795955 2.22006341 2.22216744 2.22427166 2.22637606
 2.22848064 2.2305854  2.23269035 2.23479548 2.23690079 2.2390063
 2.24111199 2.24321788 2.24532395 2.24743022 2.24953668 2.25164334
 2.25375019 2.25585723 2.25796448 2.26007192 2.26217956 2.26428741
 2.26639546 2.26850371 2.27061216 2.27272082 2.27482969 2.27693877
 2.27904805 2.28115755 2.28326725 2.28537717 2.28748731 2.28959765
 2.29170822 2.293819   2.29593    2.29804121 2.30015265 2.30226431
 2.3043762  2.3064883  2.30860063 2.31071319 2.31282598 2.31493899
 2.31705223 2.3191657  2.32127941 2.32339335 2.32550752 2.32762193
 2.32973657 2.33185145 2.33396657 2.33608193 2.33819752 2.34031336
 2.34242945 2.34454578 2.34666235 2.34877917 2.35089623 2.35301355
 2.35513111 2.35724893 2.359367   2.36148532 2.36360389 2.36572272
 2.36784181 2.36996115 2.37208075 2.37420061 2.37632073 2.37844112
 2.38056176 2.38268268 2.38480385 2.38692529 2.389047   2.39116898
 2.39329123 2.39541375 2.39753654 2.3996596  2.40178294 2.40390656
 2.40603045 2.40815461 2.41027906 2.41240378 2.41452879 2.41665408
 2.41877965 2.4209055  2.42303164 2.42515807 2.42728478 2.42941178
 2.43153907 2.43366665 2.43579453 2.43792269 2.44005115 2.44217991
 2.44430896 2.44643831 2.44856796 2.4506979  2.45282815 2.4549587
 2.45708955 2.45922071 2.46135217 2.46348393 2.465616   2.46774839
 2.46988108 2.47201408 2.47414739 2.47628101 2.47841495 2.48054921
 2.48268377 2.48481866 2.48695386 2.48908939 2.49122523 2.49336139
 2.49549788 2.49763469 2.49977183 2.50190929 2.50404707 2.50618519
 2.50832363 2.5104624  2.51260151 2.51474095 2.51688071 2.51902082
 2.52116126 2.52330203 2.52544315 2.5275846  2.52972639 2.53186852
 2.534011   2.53615381 2.53829697 2.54044048 2.54258433 2.54472853
 2.54687308 2.54901797 2.55116322 2.55330882 2.55545477 2.55760107
 2.55974773 2.56189475 2.56404212 2.56618985 2.56833794 2.57048639
 2.5726352  2.57478437 2.5769339  2.5790838  2.58123407 2.5833847
 2.5855357  2.58768706 2.5898388  2.59199091 2.59414339 2.59629624
 2.59844947 2.60060307 2.60275704 2.6049114  2.60706613 2.60922124
 2.61137673 2.6135326  2.61568886 2.6178455  2.62000252 2.62215993
 2.62431773 2.62647591 2.62863448 2.63079344 2.63295279 2.63511254
 2.63727267 2.6394332  2.64159413 2.64375545 2.64591717 2.64807929
 2.6502418  2.65240472 2.65456804 2.65673176 2.65889588 2.66106041
 2.66322534 2.66539068 2.66755643 2.66972259 2.67188915 2.67405613
 2.67622352 2.67839132 2.68055953 2.68272816 2.68489721 2.68706667
 2.68923655 2.69140685 2.69357757 2.69574871 2.69792028 2.70009226
 2.70226467 2.70443751 2.70661077 2.70878446 2.71095858 2.71313313
 2.7153081  2.71748351 2.71965935 2.72183563]
t = [1.06996374e+09 1.06996377e+09 1.06996381e+09 1.06996385e+09
 1.06996389e+09 1.06996392e+09 1.06996396e+09 1.06996400e+09
 1.06996403e+09 1.06996407e+09 1.06996411e+09 1.06996414e+09
 1.06996418e+09 1.06996422e+09 1.06996425e+09 1.06996429e+09
 1.06996433e+09 1.06996436e+09 1.06996440e+09 1.06996444e+09
 1.06996448e+09 1.06996451e+09 1.06996455e+09 1.06996459e+09
 1.06996462e+09 1.06996466e+09 1.06996470e+09 1.06996473e+09
 1.06996477e+09 1.06996481e+09 1.06996484e+09 1.06996488e+09
 1.06996492e+09 1.06996496e+09 1.06996499e+09 1.06996503e+09
 1.06996507e+09 1.06996510e+09 1.06996514e+09 1.06996518e+09
 1.06996521e+09 1.06996525e+09 1.06996529e+09 1.06996532e+09
 1.06996536e+09 1.06996540e+09 1.06996544e+09 1.06996547e+09
 1.06996551e+09 1.06996555e+09 1.06996558e+09 1.06996562e+09
 1.06996566e+09 1.06996569e+09 1.06996573e+09 1.06996577e+09
 1.06996580e+09 1.06996584e+09 1.06996588e+09 1.06996591e+09
 1.06996595e+09 1.06996599e+09 1.06996603e+09 1.06996606e+09
 1.06996610e+09 1.06996614e+09 1.06996617e+09 1.06996621e+09
 1.06996625e+09 1.06996628e+09 1.06996632e+09 1.06996636e+09
 1.06996639e+09 1.06996643e+09 1.06996647e+09 1.06996651e+09
 1.06996654e+09 1.06996658e+09 1.06996662e+09 1.06996665e+09
 1.06996669e+09 1.06996673e+09 1.06996676e+09 1.06996680e+09
 1.06996684e+09 1.06996687e+09 1.06996691e+09 1.06996695e+09
 1.06996698e+09 1.06996702e+09 1.06996706e+09 1.06996710e+09
 1.06996713e+09 1.06996717e+09 1.06996721e+09 1.06996724e+09
 1.06996728e+09 1.06996732e+09 1.06996735e+09 1.06996739e+09
 1.06996743e+09 1.06996746e+09 1.06996750e+09 1.06996754e+09
 1.06996758e+09 1.06996761e+09 1.06996765e+09 1.06996769e+09
 1.06996772e+09 1.06996776e+09 1.06996780e+09 1.06996783e+09
 1.06996787e+09 1.06996791e+09 1.06996794e+09 1.06996798e+09
 1.06996802e+09 1.06996805e+09 1.06996809e+09 1.06996813e+09
 1.06996817e+09 1.06996820e+09 1.06996824e+09 1.06996828e+09
 1.06996831e+09 1.06996835e+09 1.06996839e+09 1.06996842e+09
 1.06996846e+09 1.06996850e+09 1.06996853e+09 1.06996857e+09
 1.06996861e+09 1.06996865e+09 1.06996868e+09 1.06996872e+09
 1.06996876e+09 1.06996879e+09 1.06996883e+09 1.06996887e+09
 1.06996890e+09 1.06996894e+09 1.06996898e+09 1.06996901e+09
 1.06996905e+09 1.06996909e+09 1.06996912e+09 1.06996916e+09
 1.06996920e+09 1.06996924e+09 1.06996927e+09 1.06996931e+09
 1.06996935e+09 1.06996938e+09 1.06996942e+09 1.06996946e+09
 1.06996949e+09 1.06996953e+09 1.06996957e+09 1.06996960e+09
 1.06996964e+09 1.06996968e+09 1.06996972e+09 1.06996975e+09
 1.06996979e+09 1.06996983e+09 1.06996986e+09 1.06996990e+09
 1.06996994e+09 1.06996997e+09 1.06997001e+09 1.06997005e+09
 1.06997008e+09 1.06997012e+09 1.06997016e+09 1.06997020e+09
 1.06997023e+09 1.06997027e+09 1.06997031e+09 1.06997034e+09
 1.06997038e+09 1.06997042e+09 1.06997045e+09 1.06997049e+09
 1.06997053e+09 1.06997056e+09 1.06997060e+09 1.06997064e+09
 1.06997067e+09 1.06997071e+09 1.06997075e+09 1.06997079e+09
 1.06997082e+09 1.06997086e+09 1.06997090e+09 1.06997093e+09
 1.06997097e+09 1.06997101e+09 1.06997104e+09 1.06997108e+09
 1.06997112e+09 1.06997115e+09 1.06997119e+09 1.06997123e+09
 1.06997127e+09 1.06997130e+09 1.06997134e+09 1.06997138e+09
 1.06997141e+09 1.06997145e+09 1.06997149e+09 1.06997152e+09
 1.06997156e+09 1.06997160e+09 1.06997163e+09 1.06997167e+09
 1.06997171e+09 1.06997174e+09 1.06997178e+09 1.06997182e+09
 1.06997186e+09 1.06997189e+09 1.06997193e+09 1.06997197e+09
 1.06997200e+09 1.06997204e+09 1.06997208e+09 1.06997211e+09
 1.06997215e+09 1.06997219e+09 1.06997222e+09 1.06997226e+09
 1.06997230e+09 1.06997234e+09 1.06997237e+09 1.06997241e+09
 1.06997245e+09 1.06997248e+09 1.06997252e+09 1.06997256e+09
 1.06997259e+09 1.06997263e+09 1.06997267e+09 1.06997270e+09
 1.06997274e+09 1.06997278e+09 1.06997281e+09 1.06997285e+09
 1.06997289e+09 1.06997293e+09 1.06997296e+09 1.06997300e+09
 1.06997304e+09 1.06997307e+09 1.06997311e+09 1.06997315e+09
 1.06997318e+09 1.06997322e+09 1.06997326e+09 1.06997329e+09
 1.06997333e+09 1.06997337e+09 1.06997341e+09 1.06997344e+09
 1.06997348e+09 1.06997352e+09 1.06997355e+09 1.06997359e+09
 1.06997363e+09 1.06997366e+09 1.06997370e+09 1.06997374e+09
 1.06997377e+09 1.06997381e+09 1.06997385e+09 1.06997389e+09
 1.06997392e+09 1.06997396e+09 1.06997400e+09 1.06997403e+09
 1.06997407e+09 1.06997411e+09 1.06997414e+09 1.06997418e+09
 1.06997422e+09 1.06997425e+09 1.06997429e+09 1.06997433e+09
 1.06997436e+09 1.06997440e+09 1.06997444e+09 1.06997448e+09
 1.06997451e+09 1.06997455e+09 1.06997459e+09 1.06997462e+09
 1.06997466e+09 1.06997470e+09 1.06997473e+09 1.06997477e+09
 1.06997481e+09 1.06997484e+09 1.06997488e+09 1.06997492e+09
 1.06997496e+09 1.06997499e+09 1.06997503e+09 1.06997507e+09
 1.06997510e+09 1.06997514e+09 1.06997518e+09 1.06997521e+09
 1.06997525e+09 1.06997529e+09 1.06997532e+09 1.06997536e+09
 1.06997540e+09 1.06997543e+09 1.06997547e+09 1.06997551e+09
 1.06997555e+09 1.06997558e+09 1.06997562e+09 1.06997566e+09
 1.06997569e+09 1.06997573e+09 1.06997577e+09 1.06997580e+09
 1.06997584e+09 1.06997588e+09 1.06997591e+09 1.06997595e+09
 1.06997599e+09 1.06997603e+09 1.06997606e+09 1.06997610e+09
 1.06997614e+09 1.06997617e+09 1.06997621e+09 1.06997625e+09
 1.06997628e+09 1.06997632e+09 1.06997636e+09 1.06997639e+09
 1.06997643e+09 1.06997647e+09 1.06997650e+09 1.06997654e+09
 1.06997658e+09 1.06997662e+09 1.06997665e+09 1.06997669e+09
 1.06997673e+09 1.06997676e+09 1.06997680e+09 1.06997684e+09
 1.06997687e+09 1.06997691e+09 1.06997695e+09 1.06997698e+09
 1.06997702e+09 1.06997706e+09 1.06997710e+09 1.06997713e+09
 1.06997717e+09 1.06997721e+09 1.06997724e+09 1.06997728e+09
 1.06997732e+09 1.06997735e+09 1.06997739e+09 1.06997743e+09
 1.06997746e+09 1.06997750e+09 1.06997754e+09 1.06997757e+09
 1.06997761e+09 1.06997765e+09 1.06997769e+09 1.06997772e+09
 1.06997776e+09 1.06997780e+09 1.06997783e+09 1.06997787e+09
 1.06997791e+09 1.06997794e+09 1.06997798e+09 1.06997802e+09
 1.06997805e+09 1.06997809e+09 1.06997813e+09 1.06997817e+09
 1.06997820e+09 1.06997824e+09 1.06997828e+09 1.06997831e+09
 1.06997835e+09 1.06997839e+09 1.06997842e+09 1.06997846e+09
 1.06997850e+09 1.06997853e+09 1.06997857e+09 1.06997861e+09
 1.06997865e+09 1.06997868e+09 1.06997872e+09 1.06997876e+09
 1.06997879e+09 1.06997883e+09 1.06997887e+09 1.06997890e+09
 1.06997894e+09 1.06997898e+09 1.06997901e+09 1.06997905e+09
 1.06997909e+09 1.06997912e+09 1.06997916e+09 1.06997920e+09
 1.06997924e+09 1.06997927e+09 1.06997931e+09 1.06997935e+09
 1.06997938e+09 1.06997942e+09 1.06997946e+09 1.06997949e+09
 1.06997953e+09 1.06997957e+09 1.06997960e+09 1.06997964e+09
 1.06997968e+09 1.06997972e+09 1.06997975e+09 1.06997979e+09
 1.06997983e+09 1.06997986e+09 1.06997990e+09 1.06997994e+09
 1.06997997e+09 1.06998001e+09 1.06998005e+09 1.06998008e+09
 1.06998012e+09 1.06998016e+09 1.06998019e+09 1.06998023e+09
 1.06998027e+09 1.06998031e+09 1.06998034e+09 1.06998038e+09
 1.06998042e+09 1.06998045e+09 1.06998049e+09 1.06998053e+09
 1.06998056e+09 1.06998060e+09 1.06998064e+09 1.06998067e+09
 1.06998071e+09 1.06998075e+09 1.06998079e+09 1.06998082e+09
 1.06998086e+09 1.06998090e+09 1.06998093e+09 1.06998097e+09
 1.06998101e+09 1.06998104e+09 1.06998108e+09 1.06998112e+09
 1.06998115e+09 1.06998119e+09 1.06998123e+09 1.06998126e+09
 1.06998130e+09 1.06998134e+09 1.06998138e+09 1.06998141e+09
 1.06998145e+09 1.06998149e+09 1.06998152e+09 1.06998156e+09
 1.06998160e+09 1.06998163e+09 1.06998167e+09 1.06998171e+09
 1.06998174e+09 1.06998178e+09 1.06998182e+09 1.06998186e+09
 1.06998189e+09 1.06998193e+09 1.06998197e+09 1.06998200e+09
 1.06998204e+09 1.06998208e+09 1.06998211e+09 1.06998215e+09
 1.06998219e+09 1.06998222e+09 1.06998226e+09 1.06998230e+09
 1.06998233e+09 1.06998237e+09 1.06998241e+09 1.06998245e+09
 1.06998248e+09 1.06998252e+09 1.06998256e+09 1.06998259e+09
 1.06998263e+09 1.06998267e+09 1.06998270e+09 1.06998274e+09
 1.06998278e+09 1.06998281e+09 1.06998285e+09 1.06998289e+09
 1.06998293e+09 1.06998296e+09 1.06998300e+09 1.06998304e+09
 1.06998307e+09 1.06998311e+09 1.06998315e+09 1.06998318e+09
 1.06998322e+09 1.06998326e+09 1.06998329e+09 1.06998333e+09
 1.06998337e+09 1.06998341e+09 1.06998344e+09 1.06998348e+09
 1.06998352e+09 1.06998355e+09 1.06998359e+09 1.06998363e+09
 1.06998366e+09 1.06998370e+09 1.06998374e+09 1.06998377e+09
 1.06998381e+09 1.06998385e+09 1.06998388e+09 1.06998392e+09
 1.06998396e+09 1.06998400e+09 1.06998403e+09 1.06998407e+09
 1.06998411e+09 1.06998414e+09 1.06998418e+09 1.06998422e+09
 1.06998425e+09 1.06998429e+09 1.06998433e+09 1.06998436e+09
