name =JUICE_ROI_GAN_7_0_07
flyby = ['2034 NOV 18 09:58:51', '2034 NOV 19 09:58:51']
Observation TW = <SpiceCell dtype = 1, length = 0, size = 3200, card = 12, is_set = 1, adjust = 0, init = 1, base = 94723142261328, data = 94723142261376>
Res(t) = [0.90569947 0.90525789 0.90481676 0.90437609 0.90393587 0.90349611
 0.90305681 0.90261796 0.90217958 0.90174165 0.90130418 0.90086718
 0.90043064 0.89999456 0.89955894 0.89912379 0.8986891  0.89825488
 0.89782113 0.89738785 0.89695503 0.89652269 0.89609081 0.89565941
 0.89522848 0.89479802 0.89436804 0.89393854 0.89350951 0.89308096
 0.89265288 0.89222529 0.89179818 0.89137155 0.8909454  0.89051974
 0.89009456 0.88966986 0.88924566 0.88882194 0.88839871 0.88797597
 0.88755373 0.88713197 0.88671071 0.88628995 0.88586968 0.88544991
 0.88503063 0.88461186 0.88419358 0.88377581 0.88335855 0.88294178
 0.88252552 0.88210977 0.88169453 0.8812798  0.88086558 0.88045187
 0.88003867 0.87962599 0.87921382 0.87880218 0.87839105 0.87798044
 0.87757035 0.87716078 0.87675174 0.87634323 0.87593524 0.87552778
 0.87512085 0.87471445 0.87430859 0.87390325 0.87349846 0.8730942
 0.87269048 0.8722873  0.87188466 0.87148256 0.87108101 0.87068001
 0.87027955 0.86987964 0.86948028 0.86908148 0.86868322 0.86828553
 0.86788839 0.86749181 0.86709579 0.86670033 0.86630543 0.8659111
 0.86551734 0.86512414 0.86473152 0.86433947 0.86394799 0.86355708
 0.86316675 0.862777   0.86238783 0.86199925 0.86161124 0.86122382
 0.86083699 0.86045075 0.8600651  0.85968004 0.85929557 0.85891171
 0.85852843 0.85814576 0.85776369 0.85738222 0.85700136 0.85662111
 0.85624146 0.85586243 0.855484   0.85510619 0.854729   0.85435242
 0.85397647 0.85360114 0.85322643 0.85285234 0.85247889 0.85210606
 0.85173386 0.8513623  0.85099137 0.85062108 0.85025143 0.84988242
 0.84951406 0.84914634 0.84877926 0.84841283 0.84804706 0.84768194
 0.84731747 0.84695366 0.84659051 0.84622802 0.84586619 0.84550503
 0.84514454 0.84478471 0.84442555 0.84406707 0.84370927 0.84335214
 0.84299569 0.84263992 0.84228484 0.84193044 0.84157673 0.8412237
 0.84087137 0.84051974 0.8401688  0.83981856 0.83946902 0.83912018
 0.83877204 0.83842462 0.8380779  0.83773189 0.8373866  0.83704202
 0.83669816 0.83635501 0.83601259 0.8356709  0.83532992 0.83498968
 0.83465017 0.83431139 0.83397334 0.83363603 0.83329946 0.83296364
 0.83262855 0.83229421 0.83196062 0.83162778 0.83129569 0.83096435
 0.83063377 0.83030395 0.82997489 0.8296466  0.82931906 0.8289923
 0.82866631 0.82834108 0.82801664 0.82769296 0.82737007 0.82704796
 0.82672663 0.82640608 0.82608633 0.82576736 0.82544918 0.8251318
 0.82481521 0.82449942 0.82418444 0.82387025 0.82355687 0.8232443
 0.82293254 0.82262159 0.82231145 0.82200213 0.82169362 0.82138594
 0.82107908 0.82077304 0.82046783 0.82016345 0.81985991 0.81955719
 0.81925531 0.81895427 0.81865407 0.81835471 0.8180562  0.81775853
 0.81746171 0.81716575 0.81687063 0.81657637 0.81628297 0.81599043
 0.81569875 0.81540794 0.81511799 0.81482891 0.8145407  0.81425336
 0.8139669  0.81368131 0.8133966  0.81311278 0.81282983 0.81254778
 0.81226661 0.81198633 0.81170694 0.81142844 0.81115085 0.81087414
 0.81059834 0.81032344 0.81004945 0.80977636 0.80950418 0.80923291
 0.80896256 0.80869311 0.80842459 0.80815698 0.80789029 0.80762453
 0.80735969 0.80709577 0.80683279 0.80657074 0.80630961 0.80604943
 0.80579018 0.80553186 0.80527449 0.80501806 0.80476258 0.80450804
 0.80425445 0.80400181 0.80375012 0.80349939 0.80324961 0.80300079
 0.80275292 0.80250602 0.80226009 0.80201512 0.80177111 0.80152808
 0.80128601 0.80104492 0.8008048  0.80056566 0.80032749 0.80009031
 0.7998541  0.79961888 0.79938465 0.7991514  0.79891914 0.79868787
 0.79845759 0.79822831 0.79800002 0.79777273 0.79754644 0.79732114
 0.79709685 0.79687356 0.79665128 0.79643001 0.79620974 0.79599048
 0.79577224 0.79555501 0.79533879 0.79512359 0.7949094  0.79469624
 0.7944841  0.79427298 0.79406288 0.79385381 0.79364576 0.79343875
 0.79323276 0.7930278  0.79282388 0.79262099 0.79241914 0.79221832
 0.79201854 0.7918198  0.79162211 0.79142545 0.79122984 0.79103527
 0.79084175 0.79064927 0.79045785 0.79026747 0.79007815 0.78988988
 0.78970266 0.7895165  0.78933139 0.78914734 0.78896435 0.78878241
 0.78860154 0.78842173 0.78824299 0.7880653  0.78788869 0.78771313
 0.78753865 0.78736523 0.78719289 0.78702161 0.78685141 0.78668227
 0.78651421 0.78634723 0.78618132 0.78601649 0.78585273 0.78569005
 0.78552845 0.78536793 0.78520849 0.78505013 0.78489286 0.78473667
 0.78458156 0.78442753 0.7842746  0.78412274 0.78397198 0.7838223
 0.78367371 0.78352621 0.7833798  0.78323448 0.78309025 0.78294712
 0.78280507 0.78266412 0.78252426 0.7823855  0.78224783 0.78211126
 0.78197578 0.7818414  0.78170811 0.78157592 0.78144483 0.78131484
 0.78118595 0.78105816 0.78093146 0.78080587 0.78068138 0.78055798
 0.78043569 0.7803145  0.78019442 0.78007543 0.77995755 0.77984077
 0.77972509 0.77961051 0.77949704 0.77938468 0.77927341 0.77916325
 0.7790542  0.77894625 0.7788394  0.77873366 0.77862902 0.77852549
 0.77842307 0.77832174 0.77822153 0.77812242 0.77802441 0.77792751
 0.77783171 0.77773702 0.77764344 0.77755096 0.77745958 0.77736931
 0.77728015 0.77719209 0.77710514 0.77701928 0.77693454 0.7768509
 0.77676836 0.77668692 0.77660659 0.77652737 0.77644924 0.77637222
 0.77629631 0.77622149 0.77614778 0.77607517 0.77600366 0.77593325
 0.77586394 0.77579574 0.77572863 0.77566262 0.77559771 0.77553391
 0.7754712  0.77540958 0.77534907 0.77528965 0.77523133 0.77517411
 0.77511798 0.77506295 0.77500901 0.77495616 0.77490441 0.77485375
 0.77480419 0.77475571 0.77470833 0.77466204 0.77461683 0.77457272
 0.77452969 0.77448776 0.77444691 0.77440714 0.77436846 0.77433087
 0.77429436 0.77425894 0.77422459 0.77419133 0.77415915 0.77412805
 0.77409803 0.77406909 0.77404122 0.77401444 0.77398873 0.77396409
 0.77394053 0.77391804 0.77389662 0.77387628 0.77385701 0.7738388
 0.77382166 0.7738056  0.7737906  0.77377666 0.77376379 0.77375198
 0.77374124 0.77373155 0.77372293 0.77371537 0.77370886 0.77370341
 0.77369902 0.77369569 0.7736934  0.77369218 0.773692   0.77369287
 0.77369479 0.77369776 0.77370178 0.77370685 0.77371295 0.77372011
 0.7737283  0.77373754 0.77374781 0.77375912 0.77377147 0.77378486
 0.77379928 0.77381474 0.77383123 0.77384874 0.77386729 0.77388687
 0.77390747 0.7739291  0.77395175 0.77397543 0.77400013 0.77402585
 0.77405258 0.77408034 0.77410911 0.77413889 0.77416969 0.7742015
 0.77423432 0.77426815 0.77430298 0.77433883 0.77437567 0.77441352
 0.77445238 0.77449223 0.77453308 0.77457493 0.77461777 0.77466161
 0.77470644 0.77475226 0.77479907 0.77484687 0.77489566 0.77494543
 0.77499618 0.77504792 0.77510063 0.77515433 0.775209   0.77526465
 0.77532127 0.77537886 0.77543743 0.77549696 0.77555747 0.77561893
 0.77568136 0.77574476 0.77580912 0.77587443 0.7759407  0.77600793
 0.77607612 0.77614525 0.77621534 0.77628638 0.77635836 0.77643129
 0.77650517 0.77657998 0.77665574 0.77673244 0.77681008 0.77688865
 0.77696815 0.77704859 0.77712996 0.77721226 0.77729548 0.77737964
 0.77746471 0.77755071 0.77763763 0.77772546 0.77781422 0.77790388
 0.77799447 0.77808596 0.77817836 0.77827168 0.77836589 0.77846102
 0.77855704 0.77865397 0.7787518  0.77885052 0.77895014 0.77905065
 0.77915206 0.77925436 0.77935754 0.77946161 0.77956657 0.77967241
 0.77977913 0.77988673 0.77999521 0.78010457 0.7802148  0.7803259
 0.78043787 0.78055072 0.78066443 0.780779   0.78089444 0.78101074
 0.7811279  0.78124592 0.78136479 0.78148452 0.7816051  0.78172653
 0.78184881 0.78197194 0.78209591 0.78222073 0.78234639 0.78247289
 0.78260023 0.7827284  0.78285741 0.78298725 0.78311792 0.78324942
 0.78338175 0.78351491 0.78364888 0.78378368 0.7839193  0.78405574
 0.784193   0.78433106 0.78446995 0.78460964 0.78475014 0.78489145
 0.78503356 0.78517648 0.7853202  0.78546472 0.78561004 0.78575616
 0.78590307 0.78605077 0.78619927 0.78634855 0.78649862 0.78664948
 0.78680112 0.78695355 0.78710675 0.78726074 0.7874155  0.78757103
 0.78772734 0.78788442 0.78804227 0.78820089 0.78836027 0.78852042
 0.78868133 0.78884301 0.78900544 0.78916863 0.78933257 0.78949727
 0.78966272 0.78982893 0.78999588 0.79016358 0.79033202 0.79050121
 0.79067114 0.7908418  0.79101321 0.79118536 0.79135824 0.79153185
 0.79170619 0.79188127 0.79205707 0.7922336  0.79241085 0.79258883
 0.79276752 0.79294694 0.79312708 0.79330793 0.7934895  0.79367178
 0.79385477 0.79403847 0.79422288 0.79440799 0.79459381 0.79478033
 0.79496756 0.79515548 0.7953441  0.79553342 0.79572344 0.79591414
 0.79610554 0.79629763 0.79649041 0.79668387 0.79687802 0.79707285
 0.79726837 0.79746456 0.79766144 0.79785899 0.79805721 0.79825611
 0.79845569 0.79865593 0.79885685 0.79905843 0.79926067 0.79946359
 0.79966716 0.7998714  0.8000763  0.80028186 0.80048807 0.80069494
 0.80090246 0.80111064 0.80131946 0.80152894 0.80173907 0.80194984
 0.80216126 0.80237332 0.80258602 0.80279936 0.80301334 0.80322797
 0.80344322 0.80365911 0.80387564 0.8040928  0.80431059 0.804529
 0.80474805 0.80496772 0.80518802 0.80540894 0.80563048 0.80585265
 0.80607543 0.80629883 0.80652285 0.80674748 0.80697273 0.80719859
 0.80742506 0.80765214 0.80787983 0.80810813 0.80833704 0.80856654
 0.80879666 0.80902737 0.80925868 0.8094906  0.80972311 0.80995622
 0.81018992 0.81042422 0.81065911 0.8108946  0.81113067 0.81136734
 0.81160459 0.81184243 0.81208085 0.81231986 0.81255945 0.81279963
 0.81304038 0.81328172 0.81352363 0.81376612 0.81400918 0.81425283
 0.81449704 0.81474183 0.81498719 0.81523311 0.81547961 0.81572668
 0.81597431 0.81622251 0.81647127 0.8167206  0.81697049 0.81722093
 0.81747194 0.81772351 0.81797564 0.81822832 0.81848156 0.81873536
 0.81898971 0.81924461 0.81950006 0.81975606 0.82001262 0.82026972
 0.82052737 0.82078556 0.8210443  0.82130359 0.82156342 0.82182379
 0.8220847  0.82234615 0.82260815 0.82287068 0.82313375 0.82339736
 0.8236615  0.82392618 0.82419139 0.82445713 0.82472341 0.82499022
 0.82525755 0.82552542 0.82579382 0.82606274 0.82633219 0.82660217
 0.82687267 0.8271437  0.82741525 0.82768732 0.82795991 0.82823303
 0.82850666 0.82878081 0.82905549 0.82933068 0.82960638 0.82988261
 0.83015934 0.8304366  0.83071436 0.83099264 0.83127144 0.83155074
 0.83183055 0.83211088 0.83239171 0.83267305 0.8329549  0.83323726
 0.83352012 0.83380349 0.83408736 0.83437174 0.83465662 0.83494201
 0.8352279  0.83551429 0.83580118 0.83608857 0.83637646 0.83666485
 0.83695373 0.83724312 0.837533   0.83782338 0.83811426 0.83840563
 0.8386975  0.83898986 0.83928271 0.83957606 0.8398699  0.84016423
 0.84045905 0.84075437 0.84105017 0.84134647 0.84164325 0.84194053
 0.84223829 0.84253654 0.84283528 0.8431345  0.84343421 0.84373441
 0.84403509 0.84433626 0.84463791 0.84494005 0.84524266 0.84554577
 0.84584935 0.84615342 0.84645797 0.846763   0.84706852 0.84737451
 0.84768098 0.84798794 0.84829537 0.84860329 0.84891168 0.84922055
 0.8495299  0.84983972 0.85015003 0.85046081 0.85077207 0.8510838
 0.85139602 0.8517087  0.85202187 0.8523355  0.85264962 0.8529642
 0.85327927 0.8535948  0.85391082 0.8542273  0.85454426 0.85486169
 0.85517959 0.85549797 0.85581682 0.85613614 0.85645594 0.8567762
 0.85709694 0.85741815 0.85773983 0.85806198 0.8583846  0.8587077
 0.85903126 0.85935529 0.8596798  0.86000477 0.86033022 0.86065613
 0.86098252 0.86130937 0.8616367  0.86196449 0.86229275 0.86262149
 0.86295069 0.86328036 0.8636105  0.86394111 0.86427218 0.86460373
 0.86493574 0.86526823 0.86560118 0.8659346 ]
t = [1.10074425e+09 1.10074432e+09 1.10074439e+09 1.10074446e+09
 1.10074453e+09 1.10074461e+09 1.10074468e+09 1.10074475e+09
 1.10074482e+09 1.10074489e+09 1.10074496e+09 1.10074503e+09
 1.10074510e+09 1.10074517e+09 1.10074524e+09 1.10074532e+09
 1.10074539e+09 1.10074546e+09 1.10074553e+09 1.10074560e+09
 1.10074567e+09 1.10074574e+09 1.10074581e+09 1.10074588e+09
 1.10074595e+09 1.10074603e+09 1.10074610e+09 1.10074617e+09
 1.10074624e+09 1.10074631e+09 1.10074638e+09 1.10074645e+09
 1.10074652e+09 1.10074659e+09 1.10074666e+09 1.10074674e+09
 1.10074681e+09 1.10074688e+09 1.10074695e+09 1.10074702e+09
 1.10074709e+09 1.10074716e+09 1.10074723e+09 1.10074730e+09
 1.10074738e+09 1.10074745e+09 1.10074752e+09 1.10074759e+09
 1.10074766e+09 1.10074773e+09 1.10074780e+09 1.10074787e+09
 1.10074794e+09 1.10074801e+09 1.10074809e+09 1.10074816e+09
 1.10074823e+09 1.10074830e+09 1.10074837e+09 1.10074844e+09
 1.10074851e+09 1.10074858e+09 1.10074865e+09 1.10074872e+09
 1.10074880e+09 1.10074887e+09 1.10074894e+09 1.10074901e+09
 1.10074908e+09 1.10074915e+09 1.10074922e+09 1.10074929e+09
 1.10074936e+09 1.10074943e+09 1.10074951e+09 1.10074958e+09
 1.10074965e+09 1.10074972e+09 1.10074979e+09 1.10074986e+09
 1.10074993e+09 1.10075000e+09 1.10075007e+09 1.10075014e+09
 1.10075022e+09 1.10075029e+09 1.10075036e+09 1.10075043e+09
 1.10075050e+09 1.10075057e+09 1.10075064e+09 1.10075071e+09
 1.10075078e+09 1.10075086e+09 1.10075093e+09 1.10075100e+09
 1.10075107e+09 1.10075114e+09 1.10075121e+09 1.10075128e+09
 1.10075135e+09 1.10075142e+09 1.10075149e+09 1.10075157e+09
 1.10075164e+09 1.10075171e+09 1.10075178e+09 1.10075185e+09
 1.10075192e+09 1.10075199e+09 1.10075206e+09 1.10075213e+09
 1.10075220e+09 1.10075228e+09 1.10075235e+09 1.10075242e+09
 1.10075249e+09 1.10075256e+09 1.10075263e+09 1.10075270e+09
 1.10075277e+09 1.10075284e+09 1.10075291e+09 1.10075299e+09
 1.10075306e+09 1.10075313e+09 1.10075320e+09 1.10075327e+09
 1.10075334e+09 1.10075341e+09 1.10075348e+09 1.10075355e+09
 1.10075362e+09 1.10075370e+09 1.10075377e+09 1.10075384e+09
 1.10075391e+09 1.10075398e+09 1.10075405e+09 1.10075412e+09
 1.10075419e+09 1.10075426e+09 1.10075434e+09 1.10075441e+09
 1.10075448e+09 1.10075455e+09 1.10075462e+09 1.10075469e+09
 1.10075476e+09 1.10075483e+09 1.10075490e+09 1.10075497e+09
 1.10075505e+09 1.10075512e+09 1.10075519e+09 1.10075526e+09
 1.10075533e+09 1.10075540e+09 1.10075547e+09 1.10075554e+09
 1.10075561e+09 1.10075568e+09 1.10075576e+09 1.10075583e+09
 1.10075590e+09 1.10075597e+09 1.10075604e+09 1.10075611e+09
 1.10075618e+09 1.10075625e+09 1.10075632e+09 1.10075639e+09
 1.10075647e+09 1.10075654e+09 1.10075661e+09 1.10075668e+09
 1.10075675e+09 1.10075682e+09 1.10075689e+09 1.10075696e+09
 1.10075703e+09 1.10075710e+09 1.10075718e+09 1.10075725e+09
 1.10075732e+09 1.10075739e+09 1.10075746e+09 1.10075753e+09
 1.10075760e+09 1.10075767e+09 1.10075774e+09 1.10075782e+09
 1.10075789e+09 1.10075796e+09 1.10075803e+09 1.10075810e+09
 1.10075817e+09 1.10075824e+09 1.10075831e+09 1.10075838e+09
 1.10075845e+09 1.10075853e+09 1.10075860e+09 1.10075867e+09
 1.10075874e+09 1.10075881e+09 1.10075888e+09 1.10075895e+09
 1.10075902e+09 1.10075909e+09 1.10075916e+09 1.10075924e+09
 1.10075931e+09 1.10075938e+09 1.10075945e+09 1.10075952e+09
 1.10075959e+09 1.10075966e+09 1.10075973e+09 1.10075980e+09
 1.10075987e+09 1.10075995e+09 1.10076002e+09 1.10076009e+09
 1.10076016e+09 1.10076023e+09 1.10076030e+09 1.10076037e+09
 1.10076044e+09 1.10076051e+09 1.10076059e+09 1.10076066e+09
 1.10076073e+09 1.10076080e+09 1.10076087e+09 1.10076094e+09
 1.10076101e+09 1.10076108e+09 1.10076115e+09 1.10076122e+09
 1.10076130e+09 1.10076137e+09 1.10076144e+09 1.10076151e+09
 1.10076158e+09 1.10076165e+09 1.10076172e+09 1.10076179e+09
 1.10076186e+09 1.10076193e+09 1.10076201e+09 1.10076208e+09
 1.10076215e+09 1.10076222e+09 1.10076229e+09 1.10076236e+09
 1.10076243e+09 1.10076250e+09 1.10076257e+09 1.10076264e+09
 1.10076272e+09 1.10076279e+09 1.10076286e+09 1.10076293e+09
 1.10076300e+09 1.10076307e+09 1.10076314e+09 1.10076321e+09
 1.10076328e+09 1.10076335e+09 1.10076343e+09 1.10076350e+09
 1.10076357e+09 1.10076364e+09 1.10076371e+09 1.10076378e+09
 1.10076385e+09 1.10076392e+09 1.10076399e+09 1.10076407e+09
 1.10076414e+09 1.10076421e+09 1.10076428e+09 1.10076435e+09
 1.10076442e+09 1.10076449e+09 1.10076456e+09 1.10076463e+09
 1.10076470e+09 1.10076478e+09 1.10076485e+09 1.10076492e+09
 1.10076499e+09 1.10076506e+09 1.10076513e+09 1.10076520e+09
 1.10076527e+09 1.10076534e+09 1.10076541e+09 1.10076549e+09
 1.10076556e+09 1.10076563e+09 1.10076570e+09 1.10076577e+09
 1.10076584e+09 1.10076591e+09 1.10076598e+09 1.10076605e+09
 1.10076612e+09 1.10076620e+09 1.10076627e+09 1.10076634e+09
 1.10076641e+09 1.10076648e+09 1.10076655e+09 1.10076662e+09
 1.10076669e+09 1.10076676e+09 1.10076683e+09 1.10076691e+09
 1.10076698e+09 1.10076705e+09 1.10076712e+09 1.10076719e+09
 1.10076726e+09 1.10076733e+09 1.10076740e+09 1.10076747e+09
 1.10076755e+09 1.10076762e+09 1.10076769e+09 1.10076776e+09
 1.10076783e+09 1.10076790e+09 1.10076797e+09 1.10076804e+09
 1.10076811e+09 1.10076818e+09 1.10076826e+09 1.10076833e+09
 1.10076840e+09 1.10076847e+09 1.10076854e+09 1.10076861e+09
 1.10076868e+09 1.10076875e+09 1.10076882e+09 1.10076889e+09
 1.10076897e+09 1.10076904e+09 1.10076911e+09 1.10076918e+09
 1.10076925e+09 1.10076932e+09 1.10076939e+09 1.10076946e+09
 1.10076953e+09 1.10076960e+09 1.10076968e+09 1.10076975e+09
 1.10076982e+09 1.10076989e+09 1.10076996e+09 1.10077003e+09
 1.10077010e+09 1.10077017e+09 1.10077024e+09 1.10077031e+09
 1.10077039e+09 1.10077046e+09 1.10077053e+09 1.10077060e+09
 1.10077067e+09 1.10077074e+09 1.10077081e+09 1.10077088e+09
 1.10077095e+09 1.10077103e+09 1.10077110e+09 1.10077117e+09
 1.10077124e+09 1.10077131e+09 1.10077138e+09 1.10077145e+09
 1.10077152e+09 1.10077159e+09 1.10077166e+09 1.10077174e+09
 1.10077181e+09 1.10077188e+09 1.10077195e+09 1.10077202e+09
 1.10077209e+09 1.10077216e+09 1.10077223e+09 1.10077230e+09
 1.10077237e+09 1.10077245e+09 1.10077252e+09 1.10077259e+09
 1.10077266e+09 1.10077273e+09 1.10077280e+09 1.10077287e+09
 1.10077294e+09 1.10077301e+09 1.10077308e+09 1.10077316e+09
 1.10077323e+09 1.10077330e+09 1.10077337e+09 1.10077344e+09
 1.10077351e+09 1.10077358e+09 1.10077365e+09 1.10077372e+09
 1.10077379e+09 1.10077387e+09 1.10077394e+09 1.10077401e+09
 1.10077408e+09 1.10077415e+09 1.10077422e+09 1.10077429e+09
 1.10077436e+09 1.10077443e+09 1.10077451e+09 1.10077458e+09
 1.10077465e+09 1.10077472e+09 1.10077479e+09 1.10077486e+09
 1.10077493e+09 1.10077500e+09 1.10077507e+09 1.10077514e+09
 1.10077522e+09 1.10077529e+09 1.10077536e+09 1.10077543e+09
 1.10077550e+09 1.10077557e+09 1.10077564e+09 1.10077571e+09
 1.10077578e+09 1.10077585e+09 1.10077593e+09 1.10077600e+09
 1.10077607e+09 1.10077614e+09 1.10077621e+09 1.10077628e+09
 1.10077635e+09 1.10077642e+09 1.10077649e+09 1.10077656e+09
 1.10077664e+09 1.10077671e+09 1.10077678e+09 1.10077685e+09
 1.10077692e+09 1.10077699e+09 1.10077706e+09 1.10077713e+09
 1.10077720e+09 1.10077727e+09 1.10077735e+09 1.10077742e+09
 1.10077749e+09 1.10077756e+09 1.10077763e+09 1.10077770e+09
 1.10077777e+09 1.10077784e+09 1.10077791e+09 1.10077799e+09
 1.10077806e+09 1.10077813e+09 1.10077820e+09 1.10077827e+09
 1.10077834e+09 1.10077841e+09 1.10077848e+09 1.10077855e+09
 1.10077862e+09 1.10077870e+09 1.10077877e+09 1.10077884e+09
 1.10077891e+09 1.10077898e+09 1.10077905e+09 1.10077912e+09
 1.10077919e+09 1.10077926e+09 1.10077933e+09 1.10077941e+09
 1.10077948e+09 1.10077955e+09 1.10077962e+09 1.10077969e+09
 1.10077976e+09 1.10077983e+09 1.10077990e+09 1.10077997e+09
 1.10078004e+09 1.10078012e+09 1.10078019e+09 1.10078026e+09
 1.10078033e+09 1.10078040e+09 1.10078047e+09 1.10078054e+09
 1.10078061e+09 1.10078068e+09 1.10078075e+09 1.10078083e+09
 1.10078090e+09 1.10078097e+09 1.10078104e+09 1.10078111e+09
 1.10078118e+09 1.10078125e+09 1.10078132e+09 1.10078139e+09
 1.10078147e+09 1.10078154e+09 1.10078161e+09 1.10078168e+09
 1.10078175e+09 1.10078182e+09 1.10078189e+09 1.10078196e+09
 1.10078203e+09 1.10078210e+09 1.10078218e+09 1.10078225e+09
 1.10078232e+09 1.10078239e+09 1.10078246e+09 1.10078253e+09
 1.10078260e+09 1.10078267e+09 1.10078274e+09 1.10078281e+09
 1.10078289e+09 1.10078296e+09 1.10078303e+09 1.10078310e+09
 1.10078317e+09 1.10078324e+09 1.10078331e+09 1.10078338e+09
 1.10078345e+09 1.10078352e+09 1.10078360e+09 1.10078367e+09
 1.10078374e+09 1.10078381e+09 1.10078388e+09 1.10078395e+09
