name =JUICE_ROI_GAN_1_0_01
flyby = ['2034 JUL 11 19:50:31', '2034 JUL 12 19:50:31']
Observation TW = <SpiceCell dtype = 1, length = 0, size = 3400, card = 14, is_set = 1, adjust = 0, init = 1, base = 94675017587632, data = 94675017587680>
Res(t) = [2.67746045 2.67469025 2.67192486 2.66916431 2.66640858 2.66365769
 2.66091164 2.65817043 2.65543409 2.6527026  2.64997598 2.64725423
 2.64453735 2.64182537 2.63911827 2.63641606 2.63371876 2.63102637
 2.62833888 2.62565632 2.62297868 2.62030598 2.61763821 2.61497538
 2.6123175  2.60966458 2.60701661 2.60437361 2.60173559 2.59910254
 2.59647448 2.5938514  2.59123332 2.58862024 2.58601217 2.58340911
 2.58081107 2.57821806 2.57563007 2.57304713 2.57046922 2.56789636
 2.56532855 2.56276581 2.56020813 2.55765552 2.55510798 2.55256553
 2.55002817 2.54749589 2.54496872 2.54244666 2.5399297  2.53741787
 2.53491115 2.53240956 2.52991311 2.52742179 2.52493562 2.5224546
 2.51997874 2.51750803 2.5150425  2.51258213 2.51012695 2.50767695
 2.50523214 2.50279252 2.50035811 2.4979289  2.4955049  2.49308612
 2.49067257 2.48826424 2.48586114 2.48346329 2.48107067 2.47868331
 2.47630121 2.47392436 2.47155278 2.46918647 2.46682544 2.46446969
 2.46211923 2.45977406 2.45743419 2.45509962 2.45277037 2.45044642
 2.4481278  2.44581449 2.44350652 2.44120389 2.43890659 2.43661464
 2.43432804 2.43204679 2.42977091 2.42750039 2.42523524 2.42297546
 2.42072107 2.41847206 2.41622845 2.41399023 2.41175741 2.40952999
 2.40730799 2.4050914  2.40288024 2.40067449 2.39847418 2.3962793
 2.39408987 2.39190587 2.38972733 2.38755424 2.38538661 2.38322445
 2.38106775 2.37891652 2.37677077 2.37463051 2.37249573 2.37036644
 2.36824265 2.36612436 2.36401157 2.3619043  2.35980254 2.35770629
 2.35561557 2.35353038 2.35145072 2.34937659 2.34730801 2.34524497
 2.34318747 2.34113554 2.33908915 2.33704834 2.33501308 2.3329834
 2.33095929 2.32894076 2.32692781 2.32492045 2.32291868 2.3209225
 2.31893193 2.31694695 2.31496758 2.31299382 2.31102568 2.30906315
 2.30710625 2.30515497 2.30320932 2.3012693  2.29933492 2.29740619
 2.29548309 2.29356565 2.29165385 2.28974771 2.28784723 2.28595241
 2.28406326 2.28217977 2.28030196 2.27842983 2.27656337 2.2747026
 2.27284751 2.27099811 2.2691544  2.26731639 2.26548408 2.26365747
 2.26183657 2.26002137 2.25821189 2.25640811 2.25461006 2.25281773
 2.25103112 2.24925023 2.24747508 2.24570565 2.24394197 2.24218401
 2.2404318  2.23868533 2.23694461 2.23520963 2.23348041 2.23175694
 2.23003922 2.22832726 2.22662107 2.22492063 2.22322597 2.22153707
 2.21985393 2.21817658 2.21650499 2.21483919 2.21317916 2.21152491
 2.20987645 2.20823377 2.20659688 2.20496578 2.20334047 2.20172096
 2.20010724 2.19849931 2.19689719 2.19530087 2.19371034 2.19212563
 2.19054671 2.18897361 2.18740631 2.18584483 2.18428916 2.1827393
 2.18119525 2.17965703 2.17812462 2.17659802 2.17507725 2.1735623
 2.17205318 2.17054988 2.1690524  2.16756075 2.16607492 2.16459493
 2.16312076 2.16165243 2.16018992 2.15873325 2.15728241 2.1558374
 2.15439822 2.15296489 2.15153738 2.15011572 2.14869989 2.14728989
 2.14588574 2.14448742 2.14309494 2.1417083  2.1403275  2.13895254
 2.13758342 2.13622014 2.1348627  2.1335111  2.13216534 2.13082542
 2.12949134 2.1281631  2.1268407  2.12552414 2.12421342 2.12290854
 2.1216095  2.1203163  2.11902894 2.11774741 2.11647173 2.11520188
 2.11393787 2.11267969 2.11142735 2.11018085 2.10894017 2.10770534
 2.10647633 2.10525316 2.10403582 2.10282431 2.10161863 2.10041877
 2.09922475 2.09803655 2.09685417 2.09567762 2.09450689 2.09334199
 2.0921829  2.09102963 2.08988218 2.08874055 2.08760473 2.08647472
 2.08535052 2.08423214 2.08311956 2.08201279 2.08091182 2.07981666
 2.07872729 2.07764373 2.07656596 2.07549399 2.07442781 2.07336743
 2.07231283 2.07126402 2.07022099 2.06918375 2.06815229 2.06712661
 2.0661067  2.06509256 2.0640842  2.0630816  2.06208477 2.0610937
 2.0601084  2.05912885 2.05815506 2.05718702 2.05622473 2.05526818
 2.05431738 2.05337232 2.052433   2.05149942 2.05057156 2.04964944
 2.04873304 2.04782236 2.0469174  2.04601816 2.04512463 2.04423682
 2.0433547  2.04247829 2.04160758 2.04074256 2.03988324 2.0390296
 2.03818165 2.03733938 2.03650278 2.03567186 2.03484661 2.03402702
 2.0332131  2.03240483 2.03160222 2.03080525 2.03001394 2.02922826
 2.02844822 2.02767381 2.02690503 2.02614188 2.02538434 2.02463242
 2.02388611 2.02314541 2.02241031 2.02168081 2.02095689 2.02023857
 2.01952583 2.01881867 2.01811709 2.01742107 2.01673062 2.01604572
 2.01536638 2.01469259 2.01402435 2.01336164 2.01270447 2.01205282
 2.0114067  2.0107661  2.01013101 2.00950143 2.00887735 2.00825877
 2.00764568 2.00703808 2.00643596 2.00583931 2.00524813 2.00466242
 2.00408216 2.00350736 2.002938   2.00237408 2.0018156  2.00126255
 2.00071492 2.00017271 1.99963591 1.99910452 1.99857852 1.99805792
 1.9975427  1.99703287 1.99652841 1.99602931 1.99553558 1.99504721
 1.99456418 1.9940865  1.99361415 1.99314714 1.99268544 1.99222907
 1.991778   1.99133224 1.99089177 1.99045659 1.9900267  1.98960209
 1.98918274 1.98876866 1.98835983 1.98795625 1.98755791 1.98716481
 1.98677694 1.98639429 1.98601685 1.98564462 1.98527759 1.98491575
 1.9845591  1.98420762 1.98386132 1.98352018 1.98318419 1.98285336
 1.98252766 1.9822071  1.98189167 1.98158135 1.98127614 1.98097604
 1.98068103 1.98039112 1.98010628 1.97982651 1.97955181 1.97928217
 1.97901758 1.97875803 1.97850351 1.97825402 1.97800955 1.97777008
 1.97753562 1.97730615 1.97708167 1.97686217 1.97664763 1.97643806
 1.97623344 1.97603376 1.97583902 1.97564921 1.97546433 1.97528435
 1.97510928 1.9749391  1.97477381 1.97461339 1.97445785 1.97430717
 1.97416134 1.97402036 1.97388421 1.97375289 1.97362639 1.9735047
 1.97338781 1.97327571 1.9731684  1.97306586 1.97296809 1.97287508
 1.97278682 1.97270329 1.9726245  1.97255043 1.97248107 1.97241642
 1.97235647 1.9723012  1.97225061 1.97220468 1.97216342 1.97212681
 1.97209484 1.9720675  1.97204478 1.97202668 1.97201319 1.97200429
 1.97199997 1.97200024 1.97200507 1.97201446 1.9720284  1.97204688
 1.97206989 1.97209742 1.97212947 1.97216602 1.97220706 1.97225258
 1.97230258 1.97235705 1.97241597 1.97247934 1.97254714 1.97261937
 1.97269602 1.97277708 1.97286253 1.97295237 1.9730466  1.97314519
 1.97324814 1.97335544 1.97346708 1.97358306 1.97370335 1.97382796
 1.97395687 1.97409007 1.97422755 1.9743693  1.97451532 1.97466559
 1.9748201  1.97497885 1.97514182 1.975309   1.97548039 1.97565597
 1.97583573 1.97601967 1.97620777 1.97640003 1.97659643 1.97679696
 1.97700162 1.97721039 1.97742327 1.97764024 1.9778613  1.97808643
 1.97831562 1.97854887 1.97878616 1.97902749 1.97927284 1.9795222
 1.97977557 1.98003293 1.98029428 1.9805596  1.98082888 1.98110212
 1.98137929 1.98166041 1.98194544 1.98223439 1.98252724 1.98282398
 1.98312461 1.98342911 1.98373747 1.98404968 1.98436573 1.98468562
 1.98500932 1.98533684 1.98566815 1.98600326 1.98634215 1.98668481
 1.98703123 1.98738139 1.9877353  1.98809294 1.98845429 1.98881936
 1.98918812 1.98956057 1.9899367  1.99031649 1.99069995 1.99108705
 1.99147778 1.99187215 1.99227013 1.99267171 1.99307689 1.99348566
 1.993898   1.99431391 1.99473337 1.99515638 1.99558292 1.99601298
 1.99644656 1.99688364 1.99732422 1.99776827 1.9982158  1.9986668
 1.99912124 1.99957913 2.00004044 2.00050518 2.00097333 2.00144488
 2.00191982 2.00239814 2.00287983 2.00336488 2.00385328 2.00434501
 2.00484008 2.00533847 2.00584016 2.00634515 2.00685343 2.00736499
 2.00787982 2.0083979  2.00891923 2.0094438  2.00997159 2.0105026
 2.01103681 2.01157423 2.01211482 2.0126586  2.01320554 2.01375563
 2.01430887 2.01486525 2.01542475 2.01598736 2.01655308 2.0171219
 2.0176938  2.01826877 2.01884681 2.0194279  2.02001203 2.0205992
 2.0211894  2.0217826  2.02237881 2.02297802 2.02358021 2.02418537
 2.02479349 2.02540457 2.0260186  2.02663555 2.02725543 2.02787823
 2.02850392 2.02913252 2.02976399 2.03039834 2.03103555 2.03167562
 2.03231853 2.03296427 2.03361284 2.03426423 2.03491841 2.0355754
 2.03623516 2.0368977  2.03756301 2.03823108 2.03890188 2.03957543
 2.0402517  2.04093068 2.04161237 2.04229676 2.04298384 2.04367359
 2.04436601 2.04506109 2.04575882 2.04645918 2.04716218 2.04786779
 2.04857601 2.04928683 2.05000024 2.05071624 2.0514348  2.05215593
 2.0528796  2.05360582 2.05433457 2.05506585 2.05579964 2.05653593
 2.05727472 2.058016   2.05875975 2.05950596 2.06025464 2.06100576
 2.06175932 2.06251531 2.06327372 2.06403454 2.06479776 2.06556337
 2.06633136 2.06710173 2.06787446 2.06864954 2.06942698 2.07020674
 2.07098884 2.07177325 2.07255997 2.07334899 2.0741403  2.07493389
 2.07572975 2.07652788 2.07732826 2.07813088 2.07893574 2.07974283
 2.08055213 2.08136365 2.08217736 2.08299326 2.08381135 2.08463161
 2.08545403 2.08627861 2.08710533 2.0879342  2.08876519 2.0895983
 2.09043352 2.09127084 2.09211026 2.09295176 2.09379534 2.09464099
 2.09548869 2.09633844 2.09719024 2.09804407 2.09889992 2.09975778
 2.10061766 2.10147953 2.10234339 2.10320923 2.10407705 2.10494683
 2.10581856 2.10669225 2.10756787 2.10844542 2.10932489 2.11020628
 2.11108957 2.11197476 2.11286184 2.1137508  2.11464163 2.11553432
 2.11642887 2.11732527 2.1182235  2.11912357 2.12002546 2.12092917
 2.12183468 2.12274199 2.12365109 2.12456197 2.12547463 2.12638905
 2.12730523 2.12822316 2.12914283 2.13006424 2.13098737 2.13191223
 2.13283879 2.13376706 2.13469702 2.13562867 2.13656199 2.13749699
 2.13843365 2.13937197 2.14031194 2.14125355 2.14219679 2.14314166
 2.14408814 2.14503623 2.14598593 2.14693722 2.1478901  2.14884456
 2.14980059 2.15075818 2.15171734 2.15267804 2.15364029 2.15460407
 2.15556938 2.1565362  2.15750455 2.15847439 2.15944574 2.16041858
 2.1613929  2.1623687  2.16334596 2.16432469 2.16530488 2.16628651
 2.16726958 2.16825409 2.16924003 2.17022738 2.17121615 2.17220632
 2.17319789 2.17419085 2.1751852  2.17618092 2.17717802 2.17817648
 2.17917629 2.18017746 2.18117997 2.18218381 2.18318899 2.18419549
 2.18520331 2.18621243 2.18722286 2.18823458 2.1892476  2.19026189
 2.19127747 2.19229431 2.19331242 2.19433178 2.19535239 2.19637425
 2.19739734 2.19842167 2.19944722 2.20047398 2.20150196 2.20253114
 2.20356153 2.2045931  2.20562586 2.20665981 2.20769492 2.2087312
 2.20976865 2.21080725 2.21184699 2.21288789 2.21392991 2.21497307
 2.21601736 2.21706276 2.21810927 2.21915689 2.22020561 2.22125543
 2.22230633 2.22335832 2.22441139 2.22546552 2.22652072 2.22757698
 2.2286343  2.22969266 2.23075206 2.2318125  2.23287397 2.23393647
 2.23499998 2.23606451 2.23713005 2.23819659 2.23926412 2.24033265
 2.24140216 2.24247266 2.24354413 2.24461656 2.24568997 2.24676433
 2.24783964 2.2489159  2.2499931  2.25107125 2.25215032 2.25323032
 2.25431124 2.25539308 2.25647582 2.25755948 2.25864403 2.25972948
 2.26081582 2.26190305 2.26299115 2.26408013 2.26516998 2.2662607
 2.26735228 2.26844471 2.26953799 2.27063212 2.27172708 2.27282289
 2.27391952 2.27501698 2.27611526 2.27721436 2.27831426 2.27941498
 2.2805165  2.28161881 2.28272192 2.28382582 2.2849305  2.28603595
 2.28714219 2.28824919 2.28935696 2.29046549 2.29157477 2.29268481
 2.29379559 2.29490712 2.29601939 2.29713239 2.29824612 2.29936057
 2.30047575 2.30159164 2.30270825 2.30382557 2.30494358 2.3060623
 2.30718172 2.30830183 2.30942262 2.3105441  2.31166626 2.31278909
 2.3139126  2.31503677 2.31616161 2.3172871  2.31841326 2.31954006
 2.32066751 2.3217956  2.32292434 2.32405371 2.32518371 2.32631434
 2.3274456  2.32857748 2.32970997 2.33084308]
t = [1.08953230e+09 1.08953239e+09 1.08953247e+09 1.08953256e+09
 1.08953265e+09 1.08953273e+09 1.08953282e+09 1.08953291e+09
 1.08953299e+09 1.08953308e+09 1.08953317e+09 1.08953325e+09
 1.08953334e+09 1.08953342e+09 1.08953351e+09 1.08953360e+09
 1.08953368e+09 1.08953377e+09 1.08953386e+09 1.08953394e+09
 1.08953403e+09 1.08953412e+09 1.08953420e+09 1.08953429e+09
 1.08953438e+09 1.08953446e+09 1.08953455e+09 1.08953464e+09
 1.08953472e+09 1.08953481e+09 1.08953489e+09 1.08953498e+09
 1.08953507e+09 1.08953515e+09 1.08953524e+09 1.08953533e+09
 1.08953541e+09 1.08953550e+09 1.08953559e+09 1.08953567e+09
 1.08953576e+09 1.08953585e+09 1.08953593e+09 1.08953602e+09
 1.08953611e+09 1.08953619e+09 1.08953628e+09 1.08953637e+09
 1.08953645e+09 1.08953654e+09 1.08953662e+09 1.08953671e+09
 1.08953680e+09 1.08953688e+09 1.08953697e+09 1.08953706e+09
 1.08953714e+09 1.08953723e+09 1.08953732e+09 1.08953740e+09
 1.08953749e+09 1.08953758e+09 1.08953766e+09 1.08953775e+09
 1.08953784e+09 1.08953792e+09 1.08953801e+09 1.08953809e+09
 1.08953818e+09 1.08953827e+09 1.08953835e+09 1.08953844e+09
 1.08953853e+09 1.08953861e+09 1.08953870e+09 1.08953879e+09
 1.08953887e+09 1.08953896e+09 1.08953905e+09 1.08953913e+09
 1.08953922e+09 1.08953931e+09 1.08953939e+09 1.08953948e+09
 1.08953957e+09 1.08953965e+09 1.08953974e+09 1.08953982e+09
 1.08953991e+09 1.08954000e+09 1.08954008e+09 1.08954017e+09
 1.08954026e+09 1.08954034e+09 1.08954043e+09 1.08954052e+09
 1.08954060e+09 1.08954069e+09 1.08954078e+09 1.08954086e+09
 1.08954095e+09 1.08954104e+09 1.08954112e+09 1.08954121e+09
 1.08954129e+09 1.08954138e+09 1.08954147e+09 1.08954155e+09
 1.08954164e+09 1.08954173e+09 1.08954181e+09 1.08954190e+09
 1.08954199e+09 1.08954207e+09 1.08954216e+09 1.08954225e+09
 1.08954233e+09 1.08954242e+09 1.08954251e+09 1.08954259e+09
 1.08954268e+09 1.08954277e+09 1.08954285e+09 1.08954294e+09
 1.08954302e+09 1.08954311e+09 1.08954320e+09 1.08954328e+09
 1.08954337e+09 1.08954346e+09 1.08954354e+09 1.08954363e+09
 1.08954372e+09 1.08954380e+09 1.08954389e+09 1.08954398e+09
 1.08954406e+09 1.08954415e+09 1.08954424e+09 1.08954432e+09
 1.08954441e+09 1.08954449e+09 1.08954458e+09 1.08954467e+09
 1.08954475e+09 1.08954484e+09 1.08954493e+09 1.08954501e+09
 1.08954510e+09 1.08954519e+09 1.08954527e+09 1.08954536e+09
 1.08954545e+09 1.08954553e+09 1.08954562e+09 1.08954571e+09
 1.08954579e+09 1.08954588e+09 1.08954597e+09 1.08954605e+09
 1.08954614e+09 1.08954622e+09 1.08954631e+09 1.08954640e+09
 1.08954648e+09 1.08954657e+09 1.08954666e+09 1.08954674e+09
 1.08954683e+09 1.08954692e+09 1.08954700e+09 1.08954709e+09
 1.08954718e+09 1.08954726e+09 1.08954735e+09 1.08954744e+09
 1.08954752e+09 1.08954761e+09 1.08954769e+09 1.08954778e+09
 1.08954787e+09 1.08954795e+09 1.08954804e+09 1.08954813e+09
 1.08954821e+09 1.08954830e+09 1.08954839e+09 1.08954847e+09
 1.08954856e+09 1.08954865e+09 1.08954873e+09 1.08954882e+09
 1.08954891e+09 1.08954899e+09 1.08954908e+09 1.08954917e+09
 1.08954925e+09 1.08954934e+09 1.08954942e+09 1.08954951e+09
 1.08954960e+09 1.08954968e+09 1.08954977e+09 1.08954986e+09
 1.08954994e+09 1.08955003e+09 1.08955012e+09 1.08955020e+09
 1.08955029e+09 1.08955038e+09 1.08955046e+09 1.08955055e+09
 1.08955064e+09 1.08955072e+09 1.08955081e+09 1.08955089e+09
 1.08955098e+09 1.08955107e+09 1.08955115e+09 1.08955124e+09
 1.08955133e+09 1.08955141e+09 1.08955150e+09 1.08955159e+09
 1.08955167e+09 1.08955176e+09 1.08955185e+09 1.08955193e+09
 1.08955202e+09 1.08955211e+09 1.08955219e+09 1.08955228e+09
 1.08955237e+09 1.08955245e+09 1.08955254e+09 1.08955262e+09
 1.08955271e+09 1.08955280e+09 1.08955288e+09 1.08955297e+09
 1.08955306e+09 1.08955314e+09 1.08955323e+09 1.08955332e+09
 1.08955340e+09 1.08955349e+09 1.08955358e+09 1.08955366e+09
 1.08955375e+09 1.08955384e+09 1.08955392e+09 1.08955401e+09
 1.08955409e+09 1.08955418e+09 1.08955427e+09 1.08955435e+09
 1.08955444e+09 1.08955453e+09 1.08955461e+09 1.08955470e+09
 1.08955479e+09 1.08955487e+09 1.08955496e+09 1.08955505e+09
 1.08955513e+09 1.08955522e+09 1.08955531e+09 1.08955539e+09
 1.08955548e+09 1.08955557e+09 1.08955565e+09 1.08955574e+09
 1.08955582e+09 1.08955591e+09 1.08955600e+09 1.08955608e+09
 1.08955617e+09 1.08955626e+09 1.08955634e+09 1.08955643e+09
 1.08955652e+09 1.08955660e+09 1.08955669e+09 1.08955678e+09
 1.08955686e+09 1.08955695e+09 1.08955704e+09 1.08955712e+09
 1.08955721e+09 1.08955729e+09 1.08955738e+09 1.08955747e+09
 1.08955755e+09 1.08955764e+09 1.08955773e+09 1.08955781e+09
 1.08955790e+09 1.08955799e+09 1.08955807e+09 1.08955816e+09
 1.08955825e+09 1.08955833e+09 1.08955842e+09 1.08955851e+09
 1.08955859e+09 1.08955868e+09 1.08955877e+09 1.08955885e+09
 1.08955894e+09 1.08955902e+09 1.08955911e+09 1.08955920e+09
 1.08955928e+09 1.08955937e+09 1.08955946e+09 1.08955954e+09
 1.08955963e+09 1.08955972e+09 1.08955980e+09 1.08955989e+09
 1.08955998e+09 1.08956006e+09 1.08956015e+09 1.08956024e+09
 1.08956032e+09 1.08956041e+09 1.08956049e+09 1.08956058e+09
 1.08956067e+09 1.08956075e+09 1.08956084e+09 1.08956093e+09
 1.08956101e+09 1.08956110e+09 1.08956119e+09 1.08956127e+09
 1.08956136e+09 1.08956145e+09 1.08956153e+09 1.08956162e+09
 1.08956171e+09 1.08956179e+09 1.08956188e+09 1.08956197e+09
 1.08956205e+09 1.08956214e+09 1.08956222e+09 1.08956231e+09
 1.08956240e+09 1.08956248e+09 1.08956257e+09 1.08956266e+09
 1.08956274e+09 1.08956283e+09 1.08956292e+09 1.08956300e+09
 1.08956309e+09 1.08956318e+09 1.08956326e+09 1.08956335e+09
 1.08956344e+09 1.08956352e+09 1.08956361e+09 1.08956369e+09
 1.08956378e+09 1.08956387e+09 1.08956395e+09 1.08956404e+09
 1.08956413e+09 1.08956421e+09 1.08956430e+09 1.08956439e+09
 1.08956447e+09 1.08956456e+09 1.08956465e+09 1.08956473e+09
 1.08956482e+09 1.08956491e+09 1.08956499e+09 1.08956508e+09
 1.08956517e+09 1.08956525e+09 1.08956534e+09 1.08956542e+09
 1.08956551e+09 1.08956560e+09 1.08956568e+09 1.08956577e+09
 1.08956586e+09 1.08956594e+09 1.08956603e+09 1.08956612e+09
 1.08956620e+09 1.08956629e+09 1.08956638e+09 1.08956646e+09
 1.08956655e+09 1.08956664e+09 1.08956672e+09 1.08956681e+09
 1.08956689e+09 1.08956698e+09 1.08956707e+09 1.08956715e+09
 1.08956724e+09 1.08956733e+09 1.08956741e+09 1.08956750e+09
 1.08956759e+09 1.08956767e+09 1.08956776e+09 1.08956785e+09
 1.08956793e+09 1.08956802e+09 1.08956811e+09 1.08956819e+09
 1.08956828e+09 1.08956837e+09 1.08956845e+09 1.08956854e+09
 1.08956862e+09 1.08956871e+09 1.08956880e+09 1.08956888e+09
 1.08956897e+09 1.08956906e+09 1.08956914e+09 1.08956923e+09
 1.08956932e+09 1.08956940e+09 1.08956949e+09 1.08956958e+09
 1.08956966e+09 1.08956975e+09 1.08956984e+09 1.08956992e+09
 1.08957001e+09 1.08957009e+09 1.08957018e+09 1.08957027e+09
 1.08957035e+09 1.08957044e+09 1.08957053e+09 1.08957061e+09
 1.08957070e+09 1.08957079e+09 1.08957087e+09 1.08957096e+09
 1.08957105e+09 1.08957113e+09 1.08957122e+09 1.08957131e+09
 1.08957139e+09 1.08957148e+09 1.08957157e+09 1.08957165e+09
 1.08957174e+09 1.08957182e+09 1.08957191e+09 1.08957200e+09
 1.08957208e+09 1.08957217e+09 1.08957226e+09 1.08957234e+09
 1.08957243e+09 1.08957252e+09 1.08957260e+09 1.08957269e+09
 1.08957278e+09 1.08957286e+09 1.08957295e+09 1.08957304e+09
 1.08957312e+09 1.08957321e+09 1.08957329e+09 1.08957338e+09
 1.08957347e+09 1.08957355e+09 1.08957364e+09 1.08957373e+09
 1.08957381e+09 1.08957390e+09 1.08957399e+09 1.08957407e+09
 1.08957416e+09 1.08957425e+09 1.08957433e+09 1.08957442e+09
 1.08957451e+09 1.08957459e+09 1.08957468e+09 1.08957477e+09
 1.08957485e+09 1.08957494e+09 1.08957502e+09 1.08957511e+09
 1.08957520e+09 1.08957528e+09 1.08957537e+09 1.08957546e+09
 1.08957554e+09 1.08957563e+09 1.08957572e+09 1.08957580e+09
 1.08957589e+09 1.08957598e+09 1.08957606e+09 1.08957615e+09
 1.08957624e+09 1.08957632e+09 1.08957641e+09 1.08957649e+09
 1.08957658e+09 1.08957667e+09 1.08957675e+09 1.08957684e+09
 1.08957693e+09 1.08957701e+09 1.08957710e+09 1.08957719e+09
 1.08957727e+09 1.08957736e+09 1.08957745e+09 1.08957753e+09
 1.08957762e+09 1.08957771e+09 1.08957779e+09 1.08957788e+09
 1.08957797e+09 1.08957805e+09 1.08957814e+09 1.08957822e+09
 1.08957831e+09 1.08957840e+09 1.08957848e+09 1.08957857e+09
 1.08957866e+09 1.08957874e+09 1.08957883e+09 1.08957892e+09
 1.08957900e+09 1.08957909e+09 1.08957918e+09 1.08957926e+09
 1.08957935e+09 1.08957944e+09 1.08957952e+09 1.08957961e+09
 1.08957969e+09 1.08957978e+09 1.08957987e+09 1.08957995e+09
 1.08958004e+09 1.08958013e+09 1.08958021e+09 1.08958030e+09
 1.08958039e+09 1.08958047e+09 1.08958056e+09 1.08958065e+09
 1.08958073e+09 1.08958082e+09 1.08958091e+09 1.08958099e+09
