name =JUICE_ROI_GAN_3_0_07
flyby = ['2034 JUL 11 19:50:31', '2034 JUL 12 19:50:31']
Observation TW = <SpiceCell dtype = 1, length = 0, size = 3600, card = 16, is_set = 1, adjust = 0, init = 1, base = 94055565712080, data = 94055565712128>
Res(t) = [1.77100279 1.77100175 1.77100241 1.77100475 1.77100879 1.77101451
 1.77102191 1.771031   1.77104177 1.77105422 1.77106835 1.77108416
 1.77110164 1.7711208  1.77114164 1.77116414 1.77118832 1.77121416
 1.77124167 1.77127085 1.77130169 1.7713342  1.77136837 1.7714042
 1.77144168 1.77148083 1.77152162 1.77156408 1.77160818 1.77165394
 1.77170134 1.7717504  1.7718011  1.77185344 1.77190743 1.77196305
 1.77202032 1.77207923 1.77213977 1.77220195 1.77226576 1.77233121
 1.77239828 1.77246698 1.77253731 1.77260927 1.77268285 1.77275805
 1.77283487 1.77291331 1.77299336 1.77307504 1.77315832 1.77324322
 1.77332973 1.77341785 1.77350757 1.7735989  1.77369183 1.77378637
 1.7738825  1.77398024 1.77407957 1.77418049 1.77428301 1.77438712
 1.77449282 1.77460011 1.77470898 1.77481944 1.77493148 1.7750451
 1.77516031 1.77527708 1.77539544 1.77551537 1.77563687 1.77575994
 1.77588458 1.77601078 1.77613855 1.77626788 1.77639878 1.77653123
 1.77666524 1.7768008  1.77693792 1.7770766  1.77721682 1.77735859
 1.7775019  1.77764676 1.77779316 1.77794111 1.77809059 1.7782416
 1.77839416 1.77854824 1.77870386 1.77886101 1.77901968 1.77917988
 1.7793416  1.77950484 1.7796696  1.77983588 1.78000368 1.78017299
 1.78034381 1.78051614 1.78068998 1.78086532 1.78104217 1.78122051
 1.78140036 1.78158171 1.78176455 1.78194889 1.78213471 1.78232203
 1.78251083 1.78270112 1.7828929  1.78308615 1.78328088 1.7834771
 1.78367478 1.78387394 1.78407457 1.78427667 1.78448024 1.78468527
 1.78489177 1.78509973 1.78530914 1.78552001 1.78573234 1.78594612
 1.78616135 1.78637802 1.78659615 1.78681571 1.78703672 1.78725917
 1.78748306 1.78770838 1.78793513 1.78816332 1.78839293 1.78862398
 1.78885644 1.78909033 1.78932564 1.78956237 1.78980051 1.79004007
 1.79028104 1.79052341 1.7907672  1.79101239 1.79125898 1.79150697
 1.79175636 1.79200715 1.79225933 1.7925129  1.79276787 1.79302421
 1.79328195 1.79354107 1.79380156 1.79406344 1.79432669 1.79459131
 1.79485731 1.79512467 1.7953934  1.7956635  1.79593496 1.79620778
 1.79648195 1.79675748 1.79703437 1.7973126  1.79759218 1.79787311
 1.79815538 1.798439   1.79872395 1.79901024 1.79929786 1.79958682
 1.79987711 1.80016872 1.80046166 1.80075592 1.8010515  1.8013484
 1.80164661 1.80194614 1.80224698 1.80254913 1.80285258 1.80315734
 1.8034634  1.80377075 1.80407941 1.80438935 1.80470059 1.80501312
 1.80532693 1.80564203 1.80595842 1.80627608 1.80659501 1.80691523
 1.80723671 1.80755947 1.80788349 1.80820878 1.80853533 1.80886314
 1.8091922  1.80952253 1.8098541  1.81018693 1.810521   1.81085632
 1.81119288 1.81153068 1.81186972 1.81220999 1.8125515  1.81289424
 1.8132382  1.81358339 1.81392981 1.81427744 1.81462629 1.81497636
 1.81532764 1.81568013 1.81603382 1.81638873 1.81674483 1.81710214
 1.81746064 1.81782034 1.81818123 1.81854331 1.81890657 1.81927103
 1.81963666 1.82000347 1.82037147 1.82074063 1.82111097 1.82148248
 1.82185515 1.82222899 1.82260399 1.82298015 1.82335747 1.82373594
 1.82411556 1.82449633 1.82487824 1.8252613  1.8256455  1.82603084
 1.82641732 1.82680493 1.82719366 1.82758353 1.82797452 1.82836664
 1.82875987 1.82915422 1.82954969 1.82994627 1.83034396 1.83074275
 1.83114265 1.83154365 1.83194575 1.83234895 1.83275324 1.83315862
 1.83356509 1.83397264 1.83438128 1.834791   1.8352018  1.83561367
 1.83602661 1.83644063 1.83685571 1.83727185 1.83768906 1.83810732
 1.83852664 1.83894702 1.83936845 1.83979092 1.84021444 1.84063901
 1.84106461 1.84149125 1.84191893 1.84234763 1.84277737 1.84320813
 1.84363992 1.84407273 1.84450656 1.8449414  1.84537726 1.84581413
 1.846252   1.84669088 1.84713076 1.84757165 1.84801352 1.8484564
 1.84890026 1.84934511 1.84979095 1.85023777 1.85068557 1.85113435
 1.85158411 1.85203484 1.85248653 1.85293919 1.85339282 1.85384741
 1.85430296 1.85475946 1.85521691 1.85567532 1.85613467 1.85659497
 1.85705621 1.85751839 1.8579815  1.85844555 1.85891053 1.85937644
 1.85984327 1.86031103 1.86077971 1.8612493  1.86171981 1.86219122
 1.86266355 1.86313679 1.86361092 1.86408596 1.86456189 1.86503872
 1.86551644 1.86599506 1.86647455 1.86695493 1.8674362  1.86791834
 1.86840135 1.86888524 1.86937    1.86985562 1.87034211 1.87082946
 1.87131767 1.87180674 1.87229665 1.87278742 1.87327904 1.8737715
 1.8742648  1.87475894 1.87525392 1.87574973 1.87624637 1.87674384
 1.87724214 1.87774126 1.87824119 1.87874194 1.87924351 1.87974589
 1.88024908 1.88075307 1.88125786 1.88176346 1.88226985 1.88277703
 1.88328501 1.88379378 1.88430333 1.88481366 1.88532478 1.88583667
 1.88634933 1.88686277 1.88737698 1.88789195 1.88840769 1.88892419
 1.88944144 1.88995945 1.89047821 1.89099772 1.89151798 1.89203898
 1.89256072 1.8930832  1.89360642 1.89413036 1.89465504 1.89518045
 1.89570657 1.89623342 1.89676099 1.89728927 1.89781827 1.89834797
 1.89887838 1.8994095  1.89994132 1.90047384 1.90100705 1.90154095
 1.90207555 1.90261083 1.9031468  1.90368345 1.90422078 1.90475878
 1.90529746 1.90583681 1.90637682 1.9069175  1.90745885 1.90800085
 1.90854351 1.90908682 1.90963079 1.9101754  1.91072065 1.91126655
 1.91181309 1.91236027 1.91290808 1.91345652 1.91400559 1.91455528
 1.9151056  1.91565654 1.9162081  1.91676027 1.91731305 1.91786644
 1.91842044 1.91897504 1.91953024 1.92008603 1.92064243 1.92119941
 1.92175699 1.92231515 1.92287389 1.92343322 1.92399312 1.9245536
 1.92511465 1.92567627 1.92623846 1.92680122 1.92736453 1.9279284
 1.92849283 1.92905781 1.92962335 1.93018943 1.93075605 1.93132322
 1.93189092 1.93245917 1.93302794 1.93359725 1.93416709 1.93473745
 1.93530833 1.93587973 1.93645165 1.93702409 1.93759703 1.93817049
 1.93874445 1.93931892 1.93989388 1.94046934 1.9410453  1.94162175
 1.94219869 1.94277612 1.94335403 1.94393242 1.94451129 1.94509064
 1.94567046 1.94625075 1.94683151 1.94741273 1.94799441 1.94857656
 1.94915916 1.94974221 1.95032572 1.95090968 1.95149408 1.95207892
 1.9526642  1.95324992 1.95383608 1.95442267 1.95500969 1.95559713
 1.956185   1.95677329 1.957362   1.95795113 1.95854067 1.95913061
 1.95972097 1.96031173 1.9609029  1.96149446 1.96208642 1.96267878
 1.96327153 1.96386466 1.96445819 1.96505209 1.96564638 1.96624105
 1.96683609 1.9674315  1.96802729 1.96862344 1.96921996 1.96981684
 1.97041408 1.97101167 1.97160962 1.97220793 1.97280658 1.97340557
 1.97400492 1.9746046  1.97520462 1.97580498 1.97640567 1.97700669
 1.97760804 1.97820971 1.97881171 1.97941403 1.98001666 1.98061961
 1.98122287 1.98182644 1.98243032 1.9830345  1.98363899 1.98424377
 1.98484885 1.98545422 1.98605989 1.98666584 1.98727208 1.9878786
 1.98848541 1.98909249 1.98969985 1.99030748 1.99091538 1.99152355
 1.99213199 1.99274068 1.99334964 1.99395886 1.99456833 1.99517806
 1.99578803 1.99639825 1.99700872 1.99761943 1.99823038 1.99884157
 1.99945299 2.00006464 2.00067653 2.00128864 2.00190097 2.00251353
 2.00312631 2.0037393  2.00435251 2.00496593 2.00557956 2.0061934
 2.00680745 2.00742169 2.00803614 2.00865078 2.00926561 2.00988064
 2.01049586 2.01111126 2.01172685 2.01234263 2.01295858 2.01357471
 2.01419101 2.01480749 2.01542413 2.01604095 2.01665792 2.01727506
 2.01789237 2.01850982 2.01912744 2.0197452  2.02036312 2.02098118
 2.02159939 2.02221775 2.02283624 2.02345487 2.02407364 2.02469254
 2.02531157 2.02593073 2.02655002 2.02716943 2.02778896 2.02840861
 2.02902837 2.02964825 2.03026825 2.03088835 2.03150856 2.03212887
 2.03274929 2.0333698  2.03399041 2.03461112 2.03523192 2.03585281
 2.03647379 2.03709486 2.03771601 2.03833724 2.03895855 2.03957993
 2.04020139 2.04082292 2.04144452 2.04206619 2.04268792 2.04330972
 2.04393157 2.04455349 2.04517545 2.04579748 2.04641955 2.04704167
 2.04766384 2.04828605 2.04890831 2.0495306  2.05015293 2.0507753
 2.0513977  2.05202013 2.05264259 2.05326507 2.05388758 2.05451011
 2.05513266 2.05575522 2.0563778  2.0570004  2.057623   2.05824561
 2.05886823 2.05949085 2.06011348 2.0607361  2.06135872 2.06198134
 2.06260394 2.06322654 2.06384913 2.0644717  2.06509426 2.0657168
 2.06633932 2.06696181 2.06758429 2.06820673 2.06882915 2.06945153
 2.07007388 2.0706962  2.07131848 2.07194071 2.07256291 2.07318506
 2.07380717 2.07442923 2.07505124 2.0756732  2.0762951  2.07691694
 2.07753873 2.07816045 2.07878212 2.07940371 2.08002524 2.08064671
 2.0812681  2.08188941 2.08251065 2.08313182 2.0837529  2.08437391
 2.08499483 2.08561566 2.08623641 2.08685706 2.08747763 2.0880981
 2.08871847 2.08933875 2.08995893 2.090579   2.09119897 2.09181884
 2.0924386  2.09305825 2.09367778 2.0942972  2.09491651 2.0955357
 2.09615477 2.09677372 2.09739254 2.09801124 2.09862981 2.09924825
 2.09986655 2.10048473 2.10110277 2.10172067 2.10233843 2.10295606
 2.10357353 2.10419087 2.10480805 2.10542509 2.10604198 2.10665871
 2.10727529 2.10789171 2.10850798 2.10912408 2.10974002 2.1103558
 2.11097141 2.11158685 2.11220212 2.11281723 2.11343215 2.11404691
 2.11466148 2.11527588 2.1158901  2.11650413 2.11711798 2.11773164
 2.11834511 2.1189584  2.11957149 2.12018439 2.12079709 2.1214096
 2.12202191 2.12263401 2.12324592 2.12385762 2.12446911 2.12508039
 2.12569147 2.12630233 2.12691298 2.12752342 2.12813364 2.12874364
 2.12935342 2.12996298 2.13057231 2.13118142 2.1317903  2.13239895
 2.13300738 2.13361557 2.13422352 2.13483124 2.13543872 2.13604597
 2.13665297 2.13725973 2.13786624 2.13847251 2.13907854 2.13968431
 2.14028983 2.1408951  2.14150011 2.14210487 2.14270937 2.14331362
 2.1439176  2.14452132 2.14512477 2.14572796 2.14633088 2.14693354
 2.14753592 2.14813803 2.14873986 2.14934142 2.14994271 2.15054371
 2.15114444 2.15174488 2.15234504 2.15294491 2.1535445  2.1541438
 2.15474281 2.15534153 2.15593996 2.15653809 2.15713593 2.15773347
 2.15833071 2.15892765 2.15952429 2.16012063 2.16071666 2.16131238
 2.16190779 2.1625029  2.1630977  2.16369218 2.16428635 2.1648802
 2.16547374 2.16606695 2.16665985 2.16725243 2.16784468 2.16843661
 2.16902822 2.16961949 2.17021044 2.17080106 2.17139135 2.1719813
 2.17257092 2.17316021 2.17374915 2.17433776 2.17492603 2.17551396
 2.17610154 2.17668878 2.17727567 2.17786222 2.17844842 2.17903427
 2.17961977 2.18020491 2.18078971 2.18137414 2.18195822 2.18254195
 2.18312531 2.18370831 2.18429095 2.18487323 2.18545514 2.18603669
 2.18661787 2.18719868 2.18777912 2.18835919 2.18893889 2.18951822
 2.19009717 2.19067574 2.19125393 2.19183175 2.19240919 2.19298624
 2.19356291 2.1941392  2.19471511 2.19529062 2.19586575 2.19644049
 2.19701484 2.1975888  2.19816237 2.19873554 2.19930831 2.1998807
 2.20045268 2.20102426 2.20159545 2.20216623 2.20273661 2.20330659
 2.20387616 2.20444533 2.20501409 2.20558244 2.20615038 2.20671791
 2.20728503 2.20785174 2.20841803 2.20898391 2.20954937 2.21011442
 2.21067904 2.21124325 2.21180703 2.2123704  2.21293334 2.21349585
 2.21405794 2.21461961 2.21518084 2.21574165 2.21630203 2.21686198
 2.21742149 2.21798057 2.21853922 2.21909744 2.21965521 2.22021255
 2.22076946 2.22132592 2.22188194 2.22243752 2.22299266 2.22354736
 2.22410161 2.22465541 2.22520877 2.22576168 2.22631415 2.22686616
 2.22741772 2.22796883 2.22851949 2.2290697  2.22961945 2.23016874
 2.23071758 2.23126596 2.23181388 2.23236135 2.23290835 2.23345489
 2.23400097 2.23454659 2.23509174 2.23563643 2.23618065 2.2367244
 2.23726769 2.23781051 2.23835285 2.23889473]
t = [1.08956665e+09 1.08956670e+09 1.08956675e+09 1.08956681e+09
 1.08956686e+09 1.08956691e+09 1.08956696e+09 1.08956701e+09
 1.08956707e+09 1.08956712e+09 1.08956717e+09 1.08956722e+09
 1.08956728e+09 1.08956733e+09 1.08956738e+09 1.08956743e+09
 1.08956748e+09 1.08956754e+09 1.08956759e+09 1.08956764e+09
 1.08956769e+09 1.08956774e+09 1.08956780e+09 1.08956785e+09
 1.08956790e+09 1.08956795e+09 1.08956800e+09 1.08956806e+09
 1.08956811e+09 1.08956816e+09 1.08956821e+09 1.08956827e+09
 1.08956832e+09 1.08956837e+09 1.08956842e+09 1.08956847e+09
 1.08956853e+09 1.08956858e+09 1.08956863e+09 1.08956868e+09
 1.08956873e+09 1.08956879e+09 1.08956884e+09 1.08956889e+09
 1.08956894e+09 1.08956899e+09 1.08956905e+09 1.08956910e+09
 1.08956915e+09 1.08956920e+09 1.08956926e+09 1.08956931e+09
 1.08956936e+09 1.08956941e+09 1.08956946e+09 1.08956952e+09
 1.08956957e+09 1.08956962e+09 1.08956967e+09 1.08956972e+09
 1.08956978e+09 1.08956983e+09 1.08956988e+09 1.08956993e+09
 1.08956998e+09 1.08957004e+09 1.08957009e+09 1.08957014e+09
 1.08957019e+09 1.08957025e+09 1.08957030e+09 1.08957035e+09
 1.08957040e+09 1.08957045e+09 1.08957051e+09 1.08957056e+09
 1.08957061e+09 1.08957066e+09 1.08957071e+09 1.08957077e+09
 1.08957082e+09 1.08957087e+09 1.08957092e+09 1.08957097e+09
 1.08957103e+09 1.08957108e+09 1.08957113e+09 1.08957118e+09
 1.08957124e+09 1.08957129e+09 1.08957134e+09 1.08957139e+09
 1.08957144e+09 1.08957150e+09 1.08957155e+09 1.08957160e+09
 1.08957165e+09 1.08957170e+09 1.08957176e+09 1.08957181e+09
 1.08957186e+09 1.08957191e+09 1.08957196e+09 1.08957202e+09
 1.08957207e+09 1.08957212e+09 1.08957217e+09 1.08957223e+09
 1.08957228e+09 1.08957233e+09 1.08957238e+09 1.08957243e+09
 1.08957249e+09 1.08957254e+09 1.08957259e+09 1.08957264e+09
 1.08957269e+09 1.08957275e+09 1.08957280e+09 1.08957285e+09
 1.08957290e+09 1.08957295e+09 1.08957301e+09 1.08957306e+09
 1.08957311e+09 1.08957316e+09 1.08957322e+09 1.08957327e+09
 1.08957332e+09 1.08957337e+09 1.08957342e+09 1.08957348e+09
 1.08957353e+09 1.08957358e+09 1.08957363e+09 1.08957368e+09
 1.08957374e+09 1.08957379e+09 1.08957384e+09 1.08957389e+09
 1.08957394e+09 1.08957400e+09 1.08957405e+09 1.08957410e+09
 1.08957415e+09 1.08957420e+09 1.08957426e+09 1.08957431e+09
 1.08957436e+09 1.08957441e+09 1.08957447e+09 1.08957452e+09
 1.08957457e+09 1.08957462e+09 1.08957467e+09 1.08957473e+09
 1.08957478e+09 1.08957483e+09 1.08957488e+09 1.08957493e+09
 1.08957499e+09 1.08957504e+09 1.08957509e+09 1.08957514e+09
 1.08957519e+09 1.08957525e+09 1.08957530e+09 1.08957535e+09
 1.08957540e+09 1.08957546e+09 1.08957551e+09 1.08957556e+09
 1.08957561e+09 1.08957566e+09 1.08957572e+09 1.08957577e+09
 1.08957582e+09 1.08957587e+09 1.08957592e+09 1.08957598e+09
 1.08957603e+09 1.08957608e+09 1.08957613e+09 1.08957618e+09
 1.08957624e+09 1.08957629e+09 1.08957634e+09 1.08957639e+09
 1.08957645e+09 1.08957650e+09 1.08957655e+09 1.08957660e+09
 1.08957665e+09 1.08957671e+09 1.08957676e+09 1.08957681e+09
 1.08957686e+09 1.08957691e+09 1.08957697e+09 1.08957702e+09
 1.08957707e+09 1.08957712e+09 1.08957717e+09 1.08957723e+09
 1.08957728e+09 1.08957733e+09 1.08957738e+09 1.08957744e+09
 1.08957749e+09 1.08957754e+09 1.08957759e+09 1.08957764e+09
 1.08957770e+09 1.08957775e+09 1.08957780e+09 1.08957785e+09
 1.08957790e+09 1.08957796e+09 1.08957801e+09 1.08957806e+09
 1.08957811e+09 1.08957816e+09 1.08957822e+09 1.08957827e+09
 1.08957832e+09 1.08957837e+09 1.08957843e+09 1.08957848e+09
 1.08957853e+09 1.08957858e+09 1.08957863e+09 1.08957869e+09
 1.08957874e+09 1.08957879e+09 1.08957884e+09 1.08957889e+09
 1.08957895e+09 1.08957900e+09 1.08957905e+09 1.08957910e+09
 1.08957915e+09 1.08957921e+09 1.08957926e+09 1.08957931e+09
 1.08957936e+09 1.08957942e+09 1.08957947e+09 1.08957952e+09
 1.08957957e+09 1.08957962e+09 1.08957968e+09 1.08957973e+09
 1.08957978e+09 1.08957983e+09 1.08957988e+09 1.08957994e+09
 1.08957999e+09 1.08958004e+09 1.08958009e+09 1.08958014e+09
 1.08958020e+09 1.08958025e+09 1.08958030e+09 1.08958035e+09
 1.08958041e+09 1.08958046e+09 1.08958051e+09 1.08958056e+09
 1.08958061e+09 1.08958067e+09 1.08958072e+09 1.08958077e+09
 1.08958082e+09 1.08958087e+09 1.08958093e+09 1.08958098e+09
 1.08958103e+09 1.08958108e+09 1.08958113e+09 1.08958119e+09
 1.08958124e+09 1.08958129e+09 1.08958134e+09 1.08958140e+09
 1.08958145e+09 1.08958150e+09 1.08958155e+09 1.08958160e+09
 1.08958166e+09 1.08958171e+09 1.08958176e+09 1.08958181e+09
 1.08958186e+09 1.08958192e+09 1.08958197e+09 1.08958202e+09
 1.08958207e+09 1.08958212e+09 1.08958218e+09 1.08958223e+09
 1.08958228e+09 1.08958233e+09 1.08958239e+09 1.08958244e+09
 1.08958249e+09 1.08958254e+09 1.08958259e+09 1.08958265e+09
 1.08958270e+09 1.08958275e+09 1.08958280e+09 1.08958285e+09
 1.08958291e+09 1.08958296e+09 1.08958301e+09 1.08958306e+09
 1.08958311e+09 1.08958317e+09 1.08958322e+09 1.08958327e+09
 1.08958332e+09 1.08958337e+09 1.08958343e+09 1.08958348e+09
 1.08958353e+09 1.08958358e+09 1.08958364e+09 1.08958369e+09
 1.08958374e+09 1.08958379e+09 1.08958384e+09 1.08958390e+09
 1.08958395e+09 1.08958400e+09 1.08958405e+09 1.08958410e+09
 1.08958416e+09 1.08958421e+09 1.08958426e+09 1.08958431e+09
 1.08958436e+09 1.08958442e+09 1.08958447e+09 1.08958452e+09
 1.08958457e+09 1.08958463e+09 1.08958468e+09 1.08958473e+09
 1.08958478e+09 1.08958483e+09 1.08958489e+09 1.08958494e+09
 1.08958499e+09 1.08958504e+09 1.08958509e+09 1.08958515e+09
 1.08958520e+09 1.08958525e+09 1.08958530e+09 1.08958535e+09
 1.08958541e+09 1.08958546e+09 1.08958551e+09 1.08958556e+09
 1.08958562e+09 1.08958567e+09 1.08958572e+09 1.08958577e+09
 1.08958582e+09 1.08958588e+09 1.08958593e+09 1.08958598e+09
 1.08958603e+09 1.08958608e+09 1.08958614e+09 1.08958619e+09
 1.08958624e+09 1.08958629e+09 1.08958634e+09 1.08958640e+09
 1.08958645e+09 1.08958650e+09 1.08958655e+09 1.08958661e+09
 1.08958666e+09 1.08958671e+09 1.08958676e+09 1.08958681e+09
 1.08958687e+09 1.08958692e+09 1.08958697e+09 1.08958702e+09
 1.08958707e+09 1.08958713e+09 1.08958718e+09 1.08958723e+09
 1.08958728e+09 1.08958733e+09 1.08958739e+09 1.08958744e+09
 1.08958749e+09 1.08958754e+09 1.08958760e+09 1.08958765e+09
 1.08958770e+09 1.08958775e+09 1.08958780e+09 1.08958786e+09
 1.08958791e+09 1.08958796e+09 1.08958801e+09 1.08958806e+09
 1.08958812e+09 1.08958817e+09 1.08958822e+09 1.08958827e+09
 1.08958832e+09 1.08958838e+09 1.08958843e+09 1.08958848e+09
 1.08958853e+09 1.08958859e+09 1.08958864e+09 1.08958869e+09
 1.08958874e+09 1.08958879e+09 1.08958885e+09 1.08958890e+09
 1.08958895e+09 1.08958900e+09 1.08958905e+09 1.08958911e+09
 1.08958916e+09 1.08958921e+09 1.08958926e+09 1.08958931e+09
 1.08958937e+09 1.08958942e+09 1.08958947e+09 1.08958952e+09
 1.08958958e+09 1.08958963e+09 1.08958968e+09 1.08958973e+09
 1.08958978e+09 1.08958984e+09 1.08958989e+09 1.08958994e+09
 1.08958999e+09 1.08959004e+09 1.08959010e+09 1.08959015e+09
 1.08959020e+09 1.08959025e+09 1.08959030e+09 1.08959036e+09
 1.08959041e+09 1.08959046e+09 1.08959051e+09 1.08959057e+09
 1.08959062e+09 1.08959067e+09 1.08959072e+09 1.08959077e+09
 1.08959083e+09 1.08959088e+09 1.08959093e+09 1.08959098e+09
 1.08959103e+09 1.08959109e+09 1.08959114e+09 1.08959119e+09
 1.08959124e+09 1.08959129e+09 1.08959135e+09 1.08959140e+09
 1.08959145e+09 1.08959150e+09 1.08959155e+09 1.08959161e+09
 1.08959166e+09 1.08959171e+09 1.08959176e+09 1.08959182e+09
 1.08959187e+09 1.08959192e+09 1.08959197e+09 1.08959202e+09
 1.08959208e+09 1.08959213e+09 1.08959218e+09 1.08959223e+09
 1.08959228e+09 1.08959234e+09 1.08959239e+09 1.08959244e+09
 1.08959249e+09 1.08959254e+09 1.08959260e+09 1.08959265e+09
 1.08959270e+09 1.08959275e+09 1.08959281e+09 1.08959286e+09
 1.08959291e+09 1.08959296e+09 1.08959301e+09 1.08959307e+09
 1.08959312e+09 1.08959317e+09 1.08959322e+09 1.08959327e+09
 1.08959333e+09 1.08959338e+09 1.08959343e+09 1.08959348e+09
 1.08959353e+09 1.08959359e+09 1.08959364e+09 1.08959369e+09
 1.08959374e+09 1.08959380e+09 1.08959385e+09 1.08959390e+09
 1.08959395e+09 1.08959400e+09 1.08959406e+09 1.08959411e+09
 1.08959416e+09 1.08959421e+09 1.08959426e+09 1.08959432e+09
 1.08959437e+09 1.08959442e+09 1.08959447e+09 1.08959452e+09
 1.08959458e+09 1.08959463e+09 1.08959468e+09 1.08959473e+09
 1.08959479e+09 1.08959484e+09 1.08959489e+09 1.08959494e+09
 1.08959499e+09 1.08959505e+09 1.08959510e+09 1.08959515e+09
 1.08959520e+09 1.08959525e+09 1.08959531e+09 1.08959536e+09
 1.08959541e+09 1.08959546e+09 1.08959551e+09 1.08959557e+09
 1.08959562e+09 1.08959567e+09 1.08959572e+09 1.08959578e+09
 1.08959583e+09 1.08959588e+09 1.08959593e+09 1.08959598e+09
