name =JUICE_ROI_GAN_4_2_02
flyby = ['2034 JUL 11 19:50:31', '2034 JUL 12 19:50:31']
Observation TW = <SpiceCell dtype = 1, length = 0, size = 3200, card = 12, is_set = 1, adjust = 0, init = 1, base = 94033475273552, data = 94033475273600>
Res(t) = [2.43126122 2.42850331 2.42574977 2.42300061 2.42025584 2.41751546
 2.41477948 2.41204791 2.40932075 2.40659801 2.40387969 2.4011658
 2.39845636 2.39575136 2.39305081 2.39035472 2.38766309 2.38497594
 2.38229326 2.37961507 2.37694137 2.37427216 2.37160746 2.36894727
 2.3662916  2.36364045 2.36099383 2.35835175 2.35571421 2.35308122
 2.35045279 2.34782891 2.34520961 2.34259488 2.33998473 2.33737917
 2.3347782  2.33218184 2.32959008 2.32700293 2.32442041 2.32184251
 2.31926924 2.31670061 2.31413662 2.31157729 2.30902261 2.3064726
 2.30392725 2.30138659 2.2988506  2.29631931 2.2937927  2.2912708
 2.28875361 2.28624113 2.28373336 2.28123033 2.27873203 2.27623846
 2.27374963 2.27126556 2.26878625 2.26631169 2.2638419  2.26137689
 2.25891666 2.25646121 2.25401056 2.2515647  2.24912365 2.24668741
 2.24425598 2.24182937 2.2394076  2.23699065 2.23457855 2.23217129
 2.22976888 2.22737133 2.22497864 2.22259082 2.22020787 2.21782981
 2.21545663 2.21308834 2.21072494 2.20836645 2.20601287 2.2036642
 2.20132045 2.19898162 2.19664773 2.19431877 2.19199475 2.18967568
 2.18736156 2.1850524  2.18274821 2.18044898 2.17815472 2.17586545
 2.17358116 2.17130186 2.16902756 2.16675825 2.16449395 2.16223467
 2.1599804  2.15773115 2.15548693 2.15324774 2.15101358 2.14878447
 2.14656041 2.14434139 2.14212744 2.13991855 2.13771472 2.13551597
 2.13332229 2.13113369 2.12895019 2.12677177 2.12459845 2.12243023
 2.12026712 2.11810911 2.11595623 2.11380846 2.11166582 2.1095283
 2.10739592 2.10526868 2.10314659 2.10102964 2.09891784 2.0968112
 2.09470972 2.0926134  2.09052226 2.08843628 2.08635549 2.08427988
 2.08220946 2.08014423 2.07808419 2.07602936 2.07397972 2.0719353
 2.06989608 2.06786209 2.06583331 2.06380976 2.06179143 2.05977834
 2.05777048 2.05576787 2.05377049 2.05177837 2.04979149 2.04780987
 2.04583351 2.04386241 2.04189658 2.03993601 2.03798072 2.03603071
 2.03408597 2.03214652 2.03021236 2.02828349 2.02635991 2.02444163
 2.02252865 2.02062097 2.0187186  2.01682154 2.0149298  2.01304337
 2.01116226 2.00928647 2.00741601 2.00555088 2.00369108 2.00183661
 1.99998748 1.9981437  1.99630525 1.99447215 1.99264441 1.99082201
 1.98900497 1.98719328 1.98538695 1.98358599 1.98179039 1.98000015
 1.97821529 1.9764358  1.97466168 1.97289294 1.97112958 1.9693716
 1.967619   1.96587179 1.96412997 1.96239353 1.96066249 1.95893684
 1.95721659 1.95550174 1.95379229 1.95208823 1.95038959 1.94869634
 1.94700851 1.94532608 1.94364907 1.94197746 1.94031128 1.9386505
 1.93699515 1.93534521 1.93370069 1.93206159 1.93042792 1.92879967
 1.92717685 1.92555945 1.92394748 1.92234094 1.92073983 1.91914415
 1.9175539  1.91596909 1.91438971 1.91281576 1.91124726 1.90968419
 1.90812655 1.90657436 1.9050276  1.90348629 1.90195041 1.90041998
 1.89889498 1.89737543 1.89586132 1.89435266 1.89284944 1.89135166
 1.88985933 1.88837244 1.88689099 1.88541499 1.88394444 1.88247933
 1.88101967 1.87956545 1.87811667 1.87667334 1.87523546 1.87380301
 1.87237602 1.87095447 1.86953836 1.86812769 1.86672247 1.86532269
 1.86392836 1.86253946 1.86115601 1.859778   1.85840542 1.85703829
 1.85567659 1.85432034 1.85296952 1.85162413 1.85028418 1.84894967
 1.84762059 1.84629694 1.84497872 1.84366593 1.84235858 1.84105664
 1.83976014 1.83846906 1.83718341 1.83590317 1.83462836 1.83335897
 1.832095   1.83083644 1.8295833  1.82833557 1.82709325 1.82585635
 1.82462485 1.82339876 1.82217807 1.82096279 1.8197529  1.81854842
 1.81734933 1.81615564 1.81496734 1.81378443 1.81260691 1.81143477
 1.81026802 1.80910665 1.80795066 1.80680005 1.80565481 1.80451494
 1.80338044 1.80225131 1.80112754 1.80000914 1.79889609 1.7977884
 1.79668606 1.79558908 1.79449744 1.79341114 1.79233019 1.79125457
 1.79018429 1.78911935 1.78805973 1.78700544 1.78595647 1.78491283
 1.78387449 1.78284148 1.78181377 1.78079137 1.77977427 1.77876247
 1.77775597 1.77675475 1.77575883 1.7747682  1.77378284 1.77280276
 1.77182796 1.77085842 1.76989415 1.76893515 1.7679814  1.76703291
 1.76608966 1.76515167 1.76421891 1.76329139 1.76236911 1.76145206
 1.76054023 1.75963362 1.75873223 1.75783605 1.75694508 1.75605931
 1.75517875 1.75430337 1.75343319 1.75256819 1.75170837 1.75085372
 1.75000425 1.74915994 1.7483208  1.74748681 1.74665797 1.74583428
 1.74501573 1.74420232 1.74339404 1.74259088 1.74179285 1.74099994
 1.74021213 1.73942943 1.73865183 1.73787933 1.73711191 1.73634959
 1.73559234 1.73484016 1.73409305 1.73335101 1.73261402 1.73188208
 1.73115519 1.73043334 1.72971652 1.72900474 1.72829797 1.72759623
 1.72689949 1.72620776 1.72552103 1.72483929 1.72416254 1.72349077
 1.72282398 1.72216216 1.7215053  1.7208534  1.72020645 1.71956444
 1.71892737 1.71829524 1.71766803 1.71704574 1.71642836 1.71581589
 1.71520832 1.71460565 1.71400786 1.71341495 1.71282692 1.71224375
 1.71166545 1.711092   1.71052339 1.70995963 1.70940071 1.70884661
 1.70829733 1.70775286 1.7072132  1.70667834 1.70614828 1.705623
 1.7051025  1.70458677 1.7040758  1.7035696  1.70306814 1.70257143
 1.70207946 1.70159221 1.70110969 1.70063188 1.70015877 1.69969037
 1.69922666 1.69876764 1.69831329 1.69786362 1.69741861 1.69697825
 1.69654255 1.69611148 1.69568504 1.69526324 1.69484605 1.69443347
 1.69402549 1.69362211 1.69322331 1.6928291  1.69243946 1.69205438
 1.69167386 1.69129788 1.69092645 1.69055955 1.69019717 1.68983931
 1.68948596 1.68913712 1.68879276 1.68845289 1.6881175  1.68778657
 1.68746011 1.6871381  1.68682054 1.68650741 1.68619871 1.68589443
 1.68559456 1.6852991  1.68500803 1.68472135 1.68443905 1.68416112
 1.68388755 1.68361834 1.68335347 1.68309294 1.68283674 1.68258486
 1.68233729 1.68209402 1.68185506 1.68162037 1.68138997 1.68116384
 1.68094196 1.68072434 1.68051097 1.68030183 1.68009692 1.67989622
 1.67969974 1.67950745 1.67931936 1.67913546 1.67895572 1.67878016
 1.67860875 1.67844149 1.67827837 1.67811938 1.67796452 1.67781377
 1.67766712 1.67752457 1.67738611 1.67725173 1.67712141 1.67699516
 1.67687296 1.6767548  1.67664067 1.67653058 1.67642449 1.67632242
 1.67622434 1.67613025 1.67604014 1.67595401 1.67587183 1.67579361
 1.67571933 1.67564899 1.67558258 1.67552008 1.67546149 1.6754068
 1.67535599 1.67530907 1.67526602 1.67522684 1.6751915  1.67516002
 1.67513236 1.67510853 1.67508852 1.67507232 1.67505992 1.6750513
 1.67504647 1.6750454  1.6750481  1.67505455 1.67506474 1.67507867
 1.67509632 1.67511769 1.67514277 1.67517154 1.675204   1.67524014
 1.67527994 1.67532341 1.67537053 1.67542129 1.67547568 1.6755337
 1.67559533 1.67566056 1.67572939 1.67580181 1.6758778  1.67595736
 1.67604048 1.67612714 1.67621735 1.67631108 1.67640834 1.6765091
 1.67661337 1.67672114 1.67683238 1.6769471  1.67706528 1.67718692
 1.67731201 1.67744053 1.67757248 1.67770785 1.67784663 1.6779888
 1.67813437 1.67828331 1.67843563 1.67859131 1.67875035 1.67891272
 1.67907843 1.67924747 1.67941982 1.67959547 1.67977443 1.67995667
 1.68014219 1.68033097 1.68052302 1.68071832 1.68091685 1.68111862
 1.68132361 1.68153182 1.68174322 1.68195783 1.68217561 1.68239657
 1.6826207  1.68284799 1.68307842 1.68331199 1.68354869 1.68378851
 1.68403144 1.68427747 1.6845266  1.6847788  1.68503408 1.68529243
 1.68555383 1.68581827 1.68608576 1.68635626 1.68662979 1.68690633
 1.68718586 1.68746839 1.6877539  1.68804238 1.68833382 1.68862821
 1.68892555 1.68922583 1.68952903 1.68983515 1.69014418 1.6904561
 1.69077092 1.69108861 1.69140918 1.69173261 1.69205889 1.69238801
 1.69271997 1.69305476 1.69339236 1.69373277 1.69407598 1.69442198
 1.69477076 1.69512231 1.69547662 1.69583369 1.6961935  1.69655605
 1.69692132 1.69728931 1.69766001 1.69803341 1.6984095  1.69878827
 1.69916971 1.69955382 1.69994058 1.70032999 1.70072203 1.70111671
 1.701514   1.7019139  1.70231641 1.70272151 1.70312919 1.70353944
 1.70395227 1.70436765 1.70478558 1.70520605 1.70562905 1.70605457
 1.70648261 1.70691315 1.70734619 1.70778172 1.70821972 1.7086602
 1.70910314 1.70954853 1.70999636 1.71044663 1.71089933 1.71135445
 1.71181197 1.7122719  1.71273422 1.71319892 1.713666   1.71413545
 1.71460726 1.71508141 1.71555791 1.71603674 1.7165179  1.71700137
 1.71748715 1.71797523 1.7184656  1.71895826 1.71945318 1.71995038
 1.72044983 1.72095153 1.72145547 1.72196164 1.72247004 1.72298066
 1.72349348 1.7240085  1.72452572 1.72504511 1.72556668 1.72609042
 1.72661632 1.72714437 1.72767456 1.72820688 1.72874133 1.7292779
 1.72981658 1.73035736 1.73090023 1.73144519 1.73199223 1.73254133
 1.7330925  1.73364572 1.73420099 1.7347583  1.73531763 1.73587899
 1.73644236 1.73700774 1.73757512 1.73814448 1.73871583 1.73928916
 1.73986445 1.7404417  1.7410209  1.74160205 1.74218513 1.74277014
 1.74335707 1.74394592 1.74453667 1.74512932 1.74572385 1.74632027
 1.74691857 1.74751873 1.74812075 1.74872462 1.74933034 1.7499379
 1.75054728 1.75115849 1.75177151 1.75238634 1.75300297 1.75362139
 1.7542416  1.75486358 1.75548733 1.75611285 1.75674012 1.75736914
 1.75799991 1.7586324  1.75926662 1.75990256 1.76054022 1.76117957
 1.76182063 1.76246338 1.76310781 1.76375391 1.76440168 1.76505112
 1.76570221 1.76635495 1.76700933 1.76766535 1.76832299 1.76898225
 1.76964312 1.7703056  1.77096968 1.77163535 1.7723026  1.77297144
 1.77364184 1.77431381 1.77498734 1.77566242 1.77633904 1.7770172
 1.77769689 1.77837811 1.77906084 1.77974508 1.78043083 1.78111808
 1.78180681 1.78249703 1.78318872 1.78388189 1.78457652 1.78527261
 1.78597015 1.78666914 1.78736956 1.78807141 1.78877469 1.78947939
 1.7901855  1.79089302 1.79160194 1.79231225 1.79302394 1.79373702
 1.79445147 1.79516729 1.79588447 1.79660301 1.7973229  1.79804413
 1.7987667  1.79949059 1.80021582 1.80094236 1.80167021 1.80239937
 1.80312983 1.80386158 1.80459462 1.80532895 1.80606455 1.80680142
 1.80753955 1.80827894 1.80901959 1.80976148 1.81050461 1.81124898
 1.81199457 1.81274139 1.81348943 1.81423867 1.81498913 1.81574078
 1.81649362 1.81724766 1.81800287 1.81875927 1.81951683 1.82027557
 1.82103546 1.8217965  1.8225587  1.82332204 1.82408651 1.82485212
 1.82561885 1.82638671 1.82715568 1.82792577 1.82869695 1.82946924
 1.83024262 1.83101709 1.83179265 1.83256928 1.83334698 1.83412576
 1.83490559 1.83568648 1.83646843 1.83725142 1.83803545 1.83882052
 1.83960662 1.84039374 1.84118189 1.84197105 1.84276122 1.8435524
 1.84434458 1.84513775 1.84593192 1.84672707 1.8475232  1.84832031
 1.84911838 1.84991743 1.85071743 1.85151839 1.85232031 1.85312316
 1.85392696 1.8547317  1.85553737 1.85634397 1.85715149 1.85795992
 1.85876927 1.85957953 1.8603907  1.86120276 1.86201572 1.86282956
 1.8636443  1.86445991 1.8652764  1.86609376 1.86691199 1.86773108
 1.86855103 1.86937184 1.87019349 1.87101599 1.87183933 1.87266351
 1.87348852 1.87431435 1.87514101 1.87596849 1.87679679 1.87762589
 1.8784558  1.87928652 1.88011803 1.88095033 1.88178343 1.88261731
 1.88345197 1.88428741 1.88512363 1.88596061 1.88679835 1.88763686
 1.88847613 1.88931615 1.89015692 1.89099843 1.89184068 1.89268368
 1.8935274  1.89437186 1.89521704 1.89606294 1.89690956 1.8977569
 1.89860494 1.8994537  1.90030315 1.90115331 1.90200416 1.9028557
 1.90370794 1.90456085 1.90541445 1.90626872 1.90712367 1.90797929
 1.90883558 1.90969253 1.91055014 1.9114084  1.91226732 1.91312689
 1.9139871  1.91484795 1.91570945 1.91657158]
t = [1.08953230e+09 1.08953239e+09 1.08953247e+09 1.08953256e+09
 1.08953265e+09 1.08953273e+09 1.08953282e+09 1.08953291e+09
 1.08953299e+09 1.08953308e+09 1.08953317e+09 1.08953325e+09
 1.08953334e+09 1.08953342e+09 1.08953351e+09 1.08953360e+09
 1.08953368e+09 1.08953377e+09 1.08953386e+09 1.08953394e+09
 1.08953403e+09 1.08953412e+09 1.08953420e+09 1.08953429e+09
 1.08953438e+09 1.08953446e+09 1.08953455e+09 1.08953464e+09
 1.08953472e+09 1.08953481e+09 1.08953489e+09 1.08953498e+09
 1.08953507e+09 1.08953515e+09 1.08953524e+09 1.08953533e+09
 1.08953541e+09 1.08953550e+09 1.08953559e+09 1.08953567e+09
 1.08953576e+09 1.08953585e+09 1.08953593e+09 1.08953602e+09
 1.08953611e+09 1.08953619e+09 1.08953628e+09 1.08953637e+09
 1.08953645e+09 1.08953654e+09 1.08953662e+09 1.08953671e+09
 1.08953680e+09 1.08953688e+09 1.08953697e+09 1.08953706e+09
 1.08953714e+09 1.08953723e+09 1.08953732e+09 1.08953740e+09
 1.08953749e+09 1.08953758e+09 1.08953766e+09 1.08953775e+09
 1.08953784e+09 1.08953792e+09 1.08953801e+09 1.08953809e+09
 1.08953818e+09 1.08953827e+09 1.08953835e+09 1.08953844e+09
 1.08953853e+09 1.08953861e+09 1.08953870e+09 1.08953879e+09
 1.08953887e+09 1.08953896e+09 1.08953905e+09 1.08953913e+09
 1.08953922e+09 1.08953931e+09 1.08953939e+09 1.08953948e+09
 1.08953957e+09 1.08953965e+09 1.08953974e+09 1.08953982e+09
 1.08953991e+09 1.08954000e+09 1.08954008e+09 1.08954017e+09
 1.08954026e+09 1.08954034e+09 1.08954043e+09 1.08954052e+09
 1.08954060e+09 1.08954069e+09 1.08954078e+09 1.08954086e+09
 1.08954095e+09 1.08954104e+09 1.08954112e+09 1.08954121e+09
 1.08954129e+09 1.08954138e+09 1.08954147e+09 1.08954155e+09
 1.08954164e+09 1.08954173e+09 1.08954181e+09 1.08954190e+09
 1.08954199e+09 1.08954207e+09 1.08954216e+09 1.08954225e+09
 1.08954233e+09 1.08954242e+09 1.08954251e+09 1.08954259e+09
 1.08954268e+09 1.08954277e+09 1.08954285e+09 1.08954294e+09
 1.08954302e+09 1.08954311e+09 1.08954320e+09 1.08954328e+09
 1.08954337e+09 1.08954346e+09 1.08954354e+09 1.08954363e+09
 1.08954372e+09 1.08954380e+09 1.08954389e+09 1.08954398e+09
 1.08954406e+09 1.08954415e+09 1.08954424e+09 1.08954432e+09
 1.08954441e+09 1.08954449e+09 1.08954458e+09 1.08954467e+09
 1.08954475e+09 1.08954484e+09 1.08954493e+09 1.08954501e+09
 1.08954510e+09 1.08954519e+09 1.08954527e+09 1.08954536e+09
 1.08954545e+09 1.08954553e+09 1.08954562e+09 1.08954571e+09
 1.08954579e+09 1.08954588e+09 1.08954597e+09 1.08954605e+09
 1.08954614e+09 1.08954622e+09 1.08954631e+09 1.08954640e+09
 1.08954648e+09 1.08954657e+09 1.08954666e+09 1.08954674e+09
 1.08954683e+09 1.08954692e+09 1.08954700e+09 1.08954709e+09
 1.08954718e+09 1.08954726e+09 1.08954735e+09 1.08954744e+09
 1.08954752e+09 1.08954761e+09 1.08954769e+09 1.08954778e+09
 1.08954787e+09 1.08954795e+09 1.08954804e+09 1.08954813e+09
 1.08954821e+09 1.08954830e+09 1.08954839e+09 1.08954847e+09
 1.08954856e+09 1.08954865e+09 1.08954873e+09 1.08954882e+09
 1.08954891e+09 1.08954899e+09 1.08954908e+09 1.08954917e+09
 1.08954925e+09 1.08954934e+09 1.08954942e+09 1.08954951e+09
 1.08954960e+09 1.08954968e+09 1.08954977e+09 1.08954986e+09
 1.08954994e+09 1.08955003e+09 1.08955012e+09 1.08955020e+09
 1.08955029e+09 1.08955038e+09 1.08955046e+09 1.08955055e+09
 1.08955064e+09 1.08955072e+09 1.08955081e+09 1.08955089e+09
 1.08955098e+09 1.08955107e+09 1.08955115e+09 1.08955124e+09
 1.08955133e+09 1.08955141e+09 1.08955150e+09 1.08955159e+09
 1.08955167e+09 1.08955176e+09 1.08955185e+09 1.08955193e+09
 1.08955202e+09 1.08955211e+09 1.08955219e+09 1.08955228e+09
 1.08955237e+09 1.08955245e+09 1.08955254e+09 1.08955262e+09
 1.08955271e+09 1.08955280e+09 1.08955288e+09 1.08955297e+09
 1.08955306e+09 1.08955314e+09 1.08955323e+09 1.08955332e+09
 1.08955340e+09 1.08955349e+09 1.08955358e+09 1.08955366e+09
 1.08955375e+09 1.08955384e+09 1.08955392e+09 1.08955401e+09
 1.08955409e+09 1.08955418e+09 1.08955427e+09 1.08955435e+09
 1.08955444e+09 1.08955453e+09 1.08955461e+09 1.08955470e+09
 1.08955479e+09 1.08955487e+09 1.08955496e+09 1.08955505e+09
 1.08955513e+09 1.08955522e+09 1.08955531e+09 1.08955539e+09
 1.08955548e+09 1.08955557e+09 1.08955565e+09 1.08955574e+09
 1.08955582e+09 1.08955591e+09 1.08955600e+09 1.08955608e+09
 1.08955617e+09 1.08955626e+09 1.08955634e+09 1.08955643e+09
 1.08955652e+09 1.08955660e+09 1.08955669e+09 1.08955678e+09
 1.08955686e+09 1.08955695e+09 1.08955704e+09 1.08955712e+09
 1.08955721e+09 1.08955729e+09 1.08955738e+09 1.08955747e+09
 1.08955755e+09 1.08955764e+09 1.08955773e+09 1.08955781e+09
 1.08955790e+09 1.08955799e+09 1.08955807e+09 1.08955816e+09
 1.08955825e+09 1.08955833e+09 1.08955842e+09 1.08955851e+09
 1.08955859e+09 1.08955868e+09 1.08955877e+09 1.08955885e+09
 1.08955894e+09 1.08955902e+09 1.08955911e+09 1.08955920e+09
 1.08955928e+09 1.08955937e+09 1.08955946e+09 1.08955954e+09
 1.08955963e+09 1.08955972e+09 1.08955980e+09 1.08955989e+09
 1.08955998e+09 1.08956006e+09 1.08956015e+09 1.08956024e+09
 1.08956032e+09 1.08956041e+09 1.08956049e+09 1.08956058e+09
 1.08956067e+09 1.08956075e+09 1.08956084e+09 1.08956093e+09
 1.08956101e+09 1.08956110e+09 1.08956119e+09 1.08956127e+09
 1.08956136e+09 1.08956145e+09 1.08956153e+09 1.08956162e+09
 1.08956171e+09 1.08956179e+09 1.08956188e+09 1.08956197e+09
 1.08956205e+09 1.08956214e+09 1.08956222e+09 1.08956231e+09
 1.08956240e+09 1.08956248e+09 1.08956257e+09 1.08956266e+09
 1.08956274e+09 1.08956283e+09 1.08956292e+09 1.08956300e+09
 1.08956309e+09 1.08956318e+09 1.08956326e+09 1.08956335e+09
 1.08956344e+09 1.08956352e+09 1.08956361e+09 1.08956369e+09
 1.08956378e+09 1.08956387e+09 1.08956395e+09 1.08956404e+09
 1.08956413e+09 1.08956421e+09 1.08956430e+09 1.08956439e+09
 1.08956447e+09 1.08956456e+09 1.08956465e+09 1.08956473e+09
 1.08956482e+09 1.08956491e+09 1.08956499e+09 1.08956508e+09
 1.08956517e+09 1.08956525e+09 1.08956534e+09 1.08956542e+09
 1.08956551e+09 1.08956560e+09 1.08956568e+09 1.08956577e+09
 1.08956586e+09 1.08956594e+09 1.08956603e+09 1.08956612e+09
 1.08956620e+09 1.08956629e+09 1.08956638e+09 1.08956646e+09
 1.08956655e+09 1.08956664e+09 1.08956672e+09 1.08956681e+09
 1.08956689e+09 1.08956698e+09 1.08956707e+09 1.08956715e+09
 1.08956724e+09 1.08956733e+09 1.08956741e+09 1.08956750e+09
 1.08956759e+09 1.08956767e+09 1.08956776e+09 1.08956785e+09
 1.08956793e+09 1.08956802e+09 1.08956811e+09 1.08956819e+09
 1.08956828e+09 1.08956837e+09 1.08956845e+09 1.08956854e+09
 1.08956862e+09 1.08956871e+09 1.08956880e+09 1.08956888e+09
 1.08956897e+09 1.08956906e+09 1.08956914e+09 1.08956923e+09
 1.08956932e+09 1.08956940e+09 1.08956949e+09 1.08956958e+09
 1.08956966e+09 1.08956975e+09 1.08956984e+09 1.08956992e+09
 1.08957001e+09 1.08957009e+09 1.08957018e+09 1.08957027e+09
 1.08957035e+09 1.08957044e+09 1.08957053e+09 1.08957061e+09
 1.08957070e+09 1.08957079e+09 1.08957087e+09 1.08957096e+09
 1.08957105e+09 1.08957113e+09 1.08957122e+09 1.08957131e+09
 1.08957139e+09 1.08957148e+09 1.08957157e+09 1.08957165e+09
 1.08957174e+09 1.08957182e+09 1.08957191e+09 1.08957200e+09
 1.08957208e+09 1.08957217e+09 1.08957226e+09 1.08957234e+09
 1.08957243e+09 1.08957252e+09 1.08957260e+09 1.08957269e+09
 1.08957278e+09 1.08957286e+09 1.08957295e+09 1.08957304e+09
 1.08957312e+09 1.08957321e+09 1.08957329e+09 1.08957338e+09
 1.08957347e+09 1.08957355e+09 1.08957364e+09 1.08957373e+09
 1.08957381e+09 1.08957390e+09 1.08957399e+09 1.08957407e+09
 1.08957416e+09 1.08957425e+09 1.08957433e+09 1.08957442e+09
 1.08957451e+09 1.08957459e+09 1.08957468e+09 1.08957477e+09
 1.08957485e+09 1.08957494e+09 1.08957502e+09 1.08957511e+09
 1.08957520e+09 1.08957528e+09 1.08957537e+09 1.08957546e+09
 1.08957554e+09 1.08957563e+09 1.08957572e+09 1.08957580e+09
 1.08957589e+09 1.08957598e+09 1.08957606e+09 1.08957615e+09
 1.08957624e+09 1.08957632e+09 1.08957641e+09 1.08957649e+09
 1.08957658e+09 1.08957667e+09 1.08957675e+09 1.08957684e+09
 1.08957693e+09 1.08957701e+09 1.08957710e+09 1.08957719e+09
 1.08957727e+09 1.08957736e+09 1.08957745e+09 1.08957753e+09
 1.08957762e+09 1.08957771e+09 1.08957779e+09 1.08957788e+09
 1.08957797e+09 1.08957805e+09 1.08957814e+09 1.08957822e+09
 1.08957831e+09 1.08957840e+09 1.08957848e+09 1.08957857e+09
 1.08957866e+09 1.08957874e+09 1.08957883e+09 1.08957892e+09
 1.08957900e+09 1.08957909e+09 1.08957918e+09 1.08957926e+09
 1.08957935e+09 1.08957944e+09 1.08957952e+09 1.08957961e+09
 1.08957969e+09 1.08957978e+09 1.08957987e+09 1.08957995e+09
 1.08958004e+09 1.08958013e+09 1.08958021e+09 1.08958030e+09
 1.08958039e+09 1.08958047e+09 1.08958056e+09 1.08958065e+09
 1.08958073e+09 1.08958082e+09 1.08958091e+09 1.08958099e+09
