name =JUICE_ROI_GAN_5_0_09
flyby = ['2034 MAY 26 18:53:51', '2034 JUN 16 18:53:51']
Observation TW = <SpiceCell dtype = 1, length = 0, size = 2400, card = 4, is_set = 1, adjust = 0, init = 1, base = 93879098933824, data = 93879098933872>
Res(t) = [0.12220024 0.10561805 0.09680765 0.09004274 0.08621108 0.08379781
 0.08287144 0.08293943 0.08323167 0.08410005 0.08564598 0.08766257
 0.0897565  0.09248985 0.09524119 0.0980227  0.10153193 0.10511429
 0.10869173 0.11222435 0.11497766 0.1191066  0.12334965 0.12765802
 0.1319998  0.13525393 0.13981039 0.14443477 0.14912087 0.15349774
 0.15860984 0.1635513  0.16854102 0.17226104 0.17724526 0.18226433
 0.1864346  0.19082466 0.19581457 0.2008261  0.20585765 0.21090779
 0.21597524 0.22105886 0.22615763 0.23127065 0.23639711 0.24153629
 0.2467742  0.25193699 0.25711087 0.26229539 0.2674902  0.26788579
 0.27290462 0.27792688 0.28424167 0.28932673 0.29441548 0.29950769
 0.30460314 0.30970166 0.31480308 0.31990727 0.32652677 0.33168351
 0.33684288 0.3420048  0.34716918 0.35179932 0.35694122 0.36208491
 0.36723038 0.37242841 0.3775777  0.38272875 0.38788158 0.39303622
 0.39819268 0.40931526 0.41464931 0.41998745 0.42532972 0.43067619
 0.43602693 0.44138202 0.44618339 0.45152284 0.45686676 0.46221528
 0.46756849 0.47292651 0.47828947 0.46046185 0.4651906  0.46991235
 0.4746271  0.47933484 0.48403556 0.48872927 0.49341595 0.49809562
 0.50276826 0.50743388 0.51209249 0.51674409 0.52138868 0.52602627
 0.53065686 0.53528047 0.53989711 0.54450678 0.5491095  0.55370527
 0.55829411 0.56287602 0.56745103 0.57201914 0.57658037 0.58113474
 0.58568225 0.59022292 0.59475677 0.59928381 0.60380406 0.60831753
 0.61282424 0.61732421 0.62181745 0.62630398 0.63078381 0.63525697
 0.63972346 0.64418331 0.64863654 0.65308316 0.65752318 0.66195664
 0.66638353 0.67080389 0.67521772 0.67962505 0.68402589 0.68842027
 0.69280819 0.69718968 0.70156474 0.70593341 0.7102957  0.71465162
 0.7190012  0.72334444 0.72768137 0.732012   0.73633635 0.74065444
 0.74496629 0.7492719  0.7535713  0.7578645  0.76215153 0.76643239
 0.7707071  0.77497568 0.77923814 0.78349451 0.78774479 0.79198901
 0.79622717 0.8004593  0.8046854  0.8089055  0.81311961 0.81732774
 0.82152991 0.82572614 0.82991643 0.83410081 0.83827929 0.84245188
 0.8466186  0.85077945 0.85493447 0.85908365 0.86322702 0.86736458
 0.87149636 0.87562235 0.87974259 0.88385708 0.88796583 0.89206886
 0.89616618 0.90025781 0.90434375 0.90842402 0.91249864 0.9165676
 0.92063094 0.92468865 0.92874076 0.93278727 0.93682819 0.94086355
 0.94489334 0.94891759 0.9529363  0.95694948 0.96095715 0.96495932
 0.968956   0.9729472  0.97693293 0.9809132  0.98488803 0.98885743
 0.9928214  0.99677995 1.00073311 1.00468087 1.00862326 1.01256027
 1.01649192 1.02041823 1.02433919 1.02825483 1.03216515 1.03607016
 1.03996987 1.0438643  1.04775344 1.05163732 1.05551594 1.05938932
 1.06325745 1.06712036 1.07097805 1.07483052 1.0786778  1.08251989
 1.0863568  1.09018854 1.09401512 1.09783655 1.10165283 1.10546398
 1.10927001 1.11307092 1.11686673 1.12065744 1.12444307 1.12822362
 1.1319991  1.13576953 1.1395349  1.14329523 1.14705054 1.15080082
 1.15454608 1.15828635 1.16202162 1.1657519  1.16947721 1.17319755
 1.17691293 1.18062336 1.18432885 1.18802941 1.19172505 1.19541577
 1.19910159 1.20278251 1.20645855 1.21012972 1.21379601 1.21745745
 1.22111403 1.22476578 1.2284127  1.23205479 1.23569207 1.23932455
 1.24295223 1.24657513 1.25019325 1.25380661 1.25741521 1.26101906
 1.26461817 1.26821256 1.27180222 1.27538718 1.27896744 1.282543
 1.28611388 1.2896801  1.29324165 1.29679855 1.3003508  1.30389843
 1.30744143 1.31097982 1.3145136  1.3180428  1.32156741 1.32508745
 1.32860292 1.33211385 1.33562023 1.33912208 1.34261942 1.34611224
 1.34960056 1.35308439 1.35656375 1.36003863 1.36350906 1.36697504
 1.37043659 1.37389372 1.37734643 1.38079474 1.38423866 1.3876782
 1.39111337 1.39454418 1.39797066 1.40139279 1.40481061 1.40822412
 1.41163333 1.41503825 1.4184389  1.42183529 1.42522743 1.42861534
 1.43199902 1.43537849 1.43875375 1.44212484 1.44549175 1.4488545
 1.4522131  1.45556756 1.45891791 1.46226415 1.46560629 1.46894436
 1.47227835 1.4756083  1.4789342  1.48225608 1.48557395 1.48888782
 1.49219771 1.49550363 1.4988056  1.50210363 1.50539773 1.50868793
 1.51197423 1.51525665 1.51853522 1.52180993 1.52508081 1.52834788
 1.53161114 1.53487062 1.53812633 1.54137829 1.54462652 1.54787102
 1.55111183 1.55434894 1.55758239 1.56081219 1.56403835 1.5672609
 1.57047985 1.57369521 1.57690702 1.58011527 1.58332    1.58652122
 1.58971895 1.59291321 1.59610402 1.59929138 1.60247534 1.6056559
 1.60883308 1.6120069  1.61517739 1.61834456 1.62150843 1.62466903
 1.62782637 1.63098047 1.63413136 1.63727905 1.64042357 1.64356494
 1.64670317 1.6498383  1.65297034 1.65609932 1.65922525 1.66234816
 1.66546807 1.66858501 1.671699   1.67481005 1.6779182  1.68102347
 1.68412588 1.68722545 1.69032221 1.69341619 1.6965074  1.69959588
 1.70268164 1.70576472 1.70884513 1.71192291 1.71499807 1.71807065
 1.72114067 1.72420815 1.72727313 1.73033563 1.73339568 1.7364533
 1.73950852 1.74256137 1.74561188 1.74866007 1.75170598 1.75474963
 1.75779104 1.76083026 1.7638673  1.7669022  1.76993499 1.7729657
 1.77599435 1.77902098 1.78204562 1.78506829 1.78808904 1.79110788
 1.79412486 1.79714    1.80015334 1.8031649  1.80617472 1.80918284
 1.81218928 1.81519409 1.81819728 1.8211989  1.82419898 1.82719756
 1.83019466 1.83319033 1.83618459 1.83917749 1.84216906 1.84515933
 1.84814834 1.85113613 1.85412273 1.85710819 1.86009253 1.86307579
 1.86605802 1.86903925 1.87201951 1.87499886 1.87797731 1.88095493
 1.88393173 1.88690777 1.88988308 1.89285771 1.89583169 1.89880507
 1.90177788 1.90475016 1.90772197 1.91069333 1.9136643  1.91663492
 1.91960522 1.92257525 1.92554506 1.92851468 1.93148417 1.93445356
 1.93742291 1.94039225 1.94336163 1.9463311  1.9493007  1.95227048
 1.95524049 1.95821077 1.96118137 1.96415233 1.96712372 1.97009556
 1.97306792 1.97604083 1.97901436 1.98198854 1.98496344 1.98793909
 1.99091555 1.99389288 1.99687111 1.99985031 2.00283053 2.00581181
 2.00879421 2.01177778 2.01476259 2.01774867 2.02073608 2.02372489
 2.02671514 2.02970688 2.03270018 2.03569509 2.03869167 2.04168997
 2.04469005 2.04769196 2.05069577 2.05370154 2.05670931 2.05971916
 2.06273113 2.0657453  2.06876171 2.07178043 2.07480153 2.07782505
 2.08085107 2.08387964 2.08691084 2.08994471 2.09298132 2.09602075
 2.09906304 2.10210828 2.10515651 2.10820781 2.11126224 2.11431987
 2.11738077 2.12044499 2.12351262 2.12658371 2.12965834 2.13273657
 2.13581848 2.13890413 2.1419936  2.14508694 2.14818424 2.15128557
 2.154391   2.1575006  2.16061444 2.16373259 2.16685514 2.16998215
 2.1731137  2.17624986 2.17939072 2.18253634 2.1856868  2.18884218
 2.19200256 2.19516801 2.19833861 2.20151445 2.2046956  2.20788215
 2.21107416 2.21427173 2.21747493 2.22068385 2.22389856 2.22711916
 2.23034573 2.23357834 2.23681709 2.24006206 2.24331333 2.246571
 2.24983514 2.25310585 2.25638321 2.25966731 2.26295824 2.26625609
 2.26956095 2.2728729  2.27619205 2.27951848 2.28285229 2.28619356
 2.2895424  2.29289889 2.29626313 2.29963521 2.30301523 2.30640329
 2.30979948 2.3132039  2.31661665 2.32003783 2.32346753 2.32690586
 2.33035291 2.33380879 2.33727361 2.34074745 2.34423043 2.34772265
 2.3512242  2.35473521 2.35825577 2.36178599 2.36532597 2.36887583
 2.37243567 2.37600559 2.37958572 2.38317616 2.38677702 2.39038841
 2.39401044 2.39764323 2.4012869  2.40494154 2.40860729 2.41228425
 2.41597254 2.41967229 2.42338359 2.42710659 2.43084139 2.43458811
 2.43834688 2.44211781 2.44590103 2.44969667 2.45350484 2.45732567
 2.46115929 2.46500581 2.46886538 2.47273811 2.47662414 2.48052358
 2.48443659 2.48836327 2.49230377 2.49625822 2.50022675 2.5042095
 2.50820659 2.51221817 2.51624437 2.52028534 2.5243412  2.52841209
 2.53249817 2.53659956 2.54071641 2.54484887 2.54899707 2.55316116
 2.55734128 2.56153759 2.56575022 2.56997934 2.57422507 2.57848759
 2.58276703 2.58706355 2.59137729 2.59570843 2.6000571  2.60442347
 2.60880769 2.61320993 2.61763032 2.62206905 2.62652627 2.63100213
 2.63549681 2.64001047 2.64454327 2.64909537 2.65366695 2.65825817
 2.66286921 2.66750022 2.67215139 2.67682288 2.68151487 2.68622754
 2.69096105 2.69571559 2.70049134 2.70528846 2.71010715 2.71494759
 2.71980995 2.72469442 2.72960119 2.73453045 2.73948237 2.74445715
 2.74945498 2.75447605 2.75952055 2.76458868 2.76968063 2.7747966
 2.77993678 2.78510137 2.79029058 2.79550461 2.80074365 2.80600792
 2.81129762 2.81661295 2.82195413 2.82732136 2.83271486 2.83813483
 2.8435815  2.84905507 2.85455577 2.86008382 2.86563942 2.87122281
 2.87683421 2.88247385 2.88814194 2.89383872 2.89956441 2.90531925
 2.91110347 2.9169173  2.92276098 2.92863475 2.93453885 2.94047351
 2.94643897 2.9524355  2.95846332 2.96452268 2.97061384 2.97673705
 2.98289256 2.98908062 2.99530149 3.00155543 3.0078427  3.01416356
 3.02051828 3.02690712 3.03333035 3.03978823 3.04628105 3.05280908
 3.05937258 3.06597184 3.07260714 3.07927876 3.08598698 3.0927321
 3.09951439 3.10633415 3.11319167 3.12008725 3.12702119 3.13399377
 3.14100531 3.14805611 3.15514647 3.16227671 3.16944712 3.17665804
 3.18390977 3.19120262 3.19853693 3.20591301 3.21333166 3.22079222
 3.22829554 3.23584197 3.24343183 3.25106546 3.25874322 3.26646543
 3.27423245 3.28204462 3.2899023  3.29780584 3.3057556  3.31375194
 3.32179522 3.32988581 3.33802409 3.34621041 3.35444517 3.36272872
 3.37106147 3.37944378 3.38787606 3.3963587  3.40489207 3.41347659
 3.42211266 3.43080068 3.43954106 3.4483342  3.45718054 3.46608047
 3.47503443 3.48404285 3.49310614 3.50222475 3.51139911 3.52062966
 3.52991685 3.53926112 3.54866293 3.55812274 3.567641   3.57721817
 3.58685473 3.59655116 3.60630792 3.61612549 3.62600437 3.63594504
 3.645948   3.65601375 3.66614278 3.67633561 3.68659275 3.69691471
 3.70730203 3.71775521 3.72827481 3.73886135 3.74951537 3.76023743
 3.77102807 3.78188785 3.79281733 3.80381708 3.81488767 3.82602968
 3.8372437  3.84853031 3.85989011 3.87132369 3.88283168 3.89441467
 3.90607329 3.91780816 3.92961991 3.94150918 3.95347661 3.96552285
 3.97764855 3.98985438 4.00214101 4.01450911 4.02695936 4.03949246
 4.0521091  4.06480998 4.0775958  4.09046729 4.10342518 4.11647019
 4.12960307 4.14282456 4.15613541 4.16953638 4.18302826 4.19661182
 4.21028783 4.2240571  4.23792043 4.25187863 4.26593252 4.28008292
 4.29433069 4.30867666 4.32312167 4.33766661 4.35231235 4.36705975
 4.38190973 4.39686317 4.411921   4.42708412 4.44235348 4.45773
 4.47321466 4.4888084  4.5045122  4.52032703 4.5362539  4.55229381
 4.56844778 4.58471682 4.60110198 4.61760432 4.63422487 4.65096473
 4.66782498 4.68480671 4.70191103 4.71913906 4.73649194 4.75397081
 4.77157684 4.78931119 4.80717506 4.82516963 4.84329612 4.86155576
 4.8799498  4.89847947 4.91714605 4.93595083 4.95489509 4.97398016
 4.99320736 5.01257802 5.03209351 5.0517552  5.07156448 5.09152273
 5.1116314  5.13189191 5.15230573 5.17287429 5.1935991  5.21448166
 5.23552349 5.25672612 5.2780911  5.29962001 5.32131442 5.34317595
 5.36520622 5.38740687 5.40977954 5.43232595 5.45504775 5.4779467
 5.50102449 5.5242829  5.54772369 5.57134866 5.5951596  5.61915837
 5.64334678 5.66772673 5.69230009 5.71706878 5.74203472 5.76719984
 5.79256614 5.81813558 5.84391018 5.86989195 5.89608295 5.92248525
 5.94910092 5.97593207 6.00298083 6.03024934 6.05773976 6.08545427
 6.11339508 6.1415644  6.16996446 6.19859754]
t = [1.08646218e+09 1.08646235e+09 1.08646251e+09 1.08646268e+09
 1.08646285e+09 1.08646302e+09 1.08646319e+09 1.08646335e+09
 1.08646352e+09 1.08646369e+09 1.08646386e+09 1.08646402e+09
 1.08646419e+09 1.08646436e+09 1.08646453e+09 1.08646470e+09
 1.08646486e+09 1.08646503e+09 1.08646520e+09 1.08646537e+09
 1.08646554e+09 1.08646570e+09 1.08646587e+09 1.08646604e+09
 1.08646621e+09 1.08646637e+09 1.08646654e+09 1.08646671e+09
 1.08646688e+09 1.08646705e+09 1.08646721e+09 1.08646738e+09
 1.08646755e+09 1.08646772e+09 1.08646788e+09 1.08646805e+09
 1.08646822e+09 1.08646839e+09 1.08646856e+09 1.08646872e+09
 1.08646889e+09 1.08646906e+09 1.08646923e+09 1.08646940e+09
 1.08646956e+09 1.08646973e+09 1.08646990e+09 1.08647007e+09
 1.08647023e+09 1.08647040e+09 1.08647057e+09 1.08647074e+09
 1.08647091e+09 1.08647107e+09 1.08647124e+09 1.08647141e+09
 1.08647158e+09 1.08647175e+09 1.08647191e+09 1.08647208e+09
 1.08647225e+09 1.08647242e+09 1.08647258e+09 1.08647275e+09
 1.08647292e+09 1.08647309e+09 1.08647326e+09 1.08647342e+09
 1.08647359e+09 1.08647376e+09 1.08647393e+09 1.08647409e+09
 1.08647426e+09 1.08647443e+09 1.08647460e+09 1.08647477e+09
 1.08647493e+09 1.08647510e+09 1.08647527e+09 1.08647544e+09
 1.08647561e+09 1.08647577e+09 1.08647594e+09 1.08647611e+09
 1.08647628e+09 1.08647644e+09 1.08647661e+09 1.08647678e+09
 1.08647695e+09 1.08647712e+09 1.08647728e+09 1.08647745e+09
 1.08647762e+09 1.08647779e+09 1.08647796e+09 1.08647812e+09
 1.08647829e+09 1.08647846e+09 1.08647863e+09 1.08647879e+09
 1.08647896e+09 1.08647913e+09 1.08647930e+09 1.08647947e+09
 1.08647963e+09 1.08647980e+09 1.08647997e+09 1.08648014e+09
 1.08648030e+09 1.08648047e+09 1.08648064e+09 1.08648081e+09
 1.08648098e+09 1.08648114e+09 1.08648131e+09 1.08648148e+09
 1.08648165e+09 1.08648182e+09 1.08648198e+09 1.08648215e+09
 1.08648232e+09 1.08648249e+09 1.08648265e+09 1.08648282e+09
 1.08648299e+09 1.08648316e+09 1.08648333e+09 1.08648349e+09
 1.08648366e+09 1.08648383e+09 1.08648400e+09 1.08648417e+09
 1.08648433e+09 1.08648450e+09 1.08648467e+09 1.08648484e+09
 1.08648500e+09 1.08648517e+09 1.08648534e+09 1.08648551e+09
 1.08648568e+09 1.08648584e+09 1.08648601e+09 1.08648618e+09
 1.08648635e+09 1.08648652e+09 1.08648668e+09 1.08648685e+09
 1.08648702e+09 1.08648719e+09 1.08648735e+09 1.08648752e+09
 1.08648769e+09 1.08648786e+09 1.08648803e+09 1.08648819e+09
 1.08648836e+09 1.08648853e+09 1.08648870e+09 1.08648886e+09
 1.08648903e+09 1.08648920e+09 1.08648937e+09 1.08648954e+09
 1.08648970e+09 1.08648987e+09 1.08649004e+09 1.08649021e+09
 1.08649038e+09 1.08649054e+09 1.08649071e+09 1.08649088e+09
 1.08649105e+09 1.08649121e+09 1.08649138e+09 1.08649155e+09
 1.08649172e+09 1.08649189e+09 1.08649205e+09 1.08649222e+09
 1.08649239e+09 1.08649256e+09 1.08649273e+09 1.08649289e+09
 1.08649306e+09 1.08649323e+09 1.08649340e+09 1.08649356e+09
 1.08649373e+09 1.08649390e+09 1.08649407e+09 1.08649424e+09
 1.08649440e+09 1.08649457e+09 1.08649474e+09 1.08649491e+09
 1.08649507e+09 1.08649524e+09 1.08649541e+09 1.08649558e+09
 1.08649575e+09 1.08649591e+09 1.08649608e+09 1.08649625e+09
 1.08649642e+09 1.08649659e+09 1.08649675e+09 1.08649692e+09
 1.08649709e+09 1.08649726e+09 1.08649742e+09 1.08649759e+09
 1.08649776e+09 1.08649793e+09 1.08649810e+09 1.08649826e+09
 1.08649843e+09 1.08649860e+09 1.08649877e+09 1.08649894e+09
 1.08649910e+09 1.08649927e+09 1.08649944e+09 1.08649961e+09
 1.08649977e+09 1.08649994e+09 1.08650011e+09 1.08650028e+09
 1.08650045e+09 1.08650061e+09 1.08650078e+09 1.08650095e+09
 1.08650112e+09 1.08650128e+09 1.08650145e+09 1.08650162e+09
 1.08650179e+09 1.08650196e+09 1.08650212e+09 1.08650229e+09
 1.08650246e+09 1.08650263e+09 1.08650280e+09 1.08650296e+09
 1.08650313e+09 1.08650330e+09 1.08650347e+09 1.08650363e+09
 1.08650380e+09 1.08650397e+09 1.08650414e+09 1.08650431e+09
 1.08650447e+09 1.08650464e+09 1.08650481e+09 1.08650498e+09
 1.08650515e+09 1.08650531e+09 1.08650548e+09 1.08650565e+09
 1.08650582e+09 1.08650598e+09 1.08650615e+09 1.08650632e+09
 1.08650649e+09 1.08650666e+09 1.08650682e+09 1.08650699e+09
 1.08650716e+09 1.08650733e+09 1.08650750e+09 1.08650766e+09
 1.08650783e+09 1.08650800e+09 1.08650817e+09 1.08650833e+09
 1.08650850e+09 1.08650867e+09 1.08650884e+09 1.08650901e+09
 1.08650917e+09 1.08650934e+09 1.08650951e+09 1.08650968e+09
 1.08650984e+09 1.08651001e+09 1.08651018e+09 1.08651035e+09
 1.08651052e+09 1.08651068e+09 1.08651085e+09 1.08651102e+09
 1.08651119e+09 1.08651136e+09 1.08651152e+09 1.08651169e+09
 1.08651186e+09 1.08651203e+09 1.08651219e+09 1.08651236e+09
 1.08651253e+09 1.08651270e+09 1.08651287e+09 1.08651303e+09
 1.08651320e+09 1.08651337e+09 1.08651354e+09 1.08651371e+09
 1.08651387e+09 1.08651404e+09 1.08651421e+09 1.08651438e+09
 1.08651454e+09 1.08651471e+09 1.08651488e+09 1.08651505e+09
 1.08651522e+09 1.08651538e+09 1.08651555e+09 1.08651572e+09
 1.08651589e+09 1.08651605e+09 1.08651622e+09 1.08651639e+09
 1.08651656e+09 1.08651673e+09 1.08651689e+09 1.08651706e+09
 1.08651723e+09 1.08651740e+09 1.08651757e+09 1.08651773e+09
 1.08651790e+09 1.08651807e+09 1.08651824e+09 1.08651840e+09
 1.08651857e+09 1.08651874e+09 1.08651891e+09 1.08651908e+09
 1.08651924e+09 1.08651941e+09 1.08651958e+09 1.08651975e+09
 1.08651992e+09 1.08652008e+09 1.08652025e+09 1.08652042e+09
 1.08652059e+09 1.08652075e+09 1.08652092e+09 1.08652109e+09
 1.08652126e+09 1.08652143e+09 1.08652159e+09 1.08652176e+09
 1.08652193e+09 1.08652210e+09 1.08652226e+09 1.08652243e+09
 1.08652260e+09 1.08652277e+09 1.08652294e+09 1.08652310e+09
 1.08652327e+09 1.08652344e+09 1.08652361e+09 1.08652378e+09
 1.08652394e+09 1.08652411e+09 1.08652428e+09 1.08652445e+09
 1.08652461e+09 1.08652478e+09 1.08652495e+09 1.08652512e+09
 1.08652529e+09 1.08652545e+09 1.08652562e+09 1.08652579e+09
 1.08652596e+09 1.08652613e+09 1.08652629e+09 1.08652646e+09
 1.08652663e+09 1.08652680e+09 1.08652696e+09 1.08652713e+09
 1.08652730e+09 1.08652747e+09 1.08652764e+09 1.08652780e+09
 1.08652797e+09 1.08652814e+09 1.08652831e+09 1.08652847e+09
 1.08652864e+09 1.08652881e+09 1.08652898e+09 1.08652915e+09
 1.08652931e+09 1.08652948e+09 1.08652965e+09 1.08652982e+09
 1.08652999e+09 1.08653015e+09 1.08653032e+09 1.08653049e+09
 1.08653066e+09 1.08653082e+09 1.08653099e+09 1.08653116e+09
 1.08653133e+09 1.08653150e+09 1.08653166e+09 1.08653183e+09
 1.08653200e+09 1.08653217e+09 1.08653234e+09 1.08653250e+09
 1.08653267e+09 1.08653284e+09 1.08653301e+09 1.08653317e+09
 1.08653334e+09 1.08653351e+09 1.08653368e+09 1.08653385e+09
 1.08653401e+09 1.08653418e+09 1.08653435e+09 1.08653452e+09
 1.08653469e+09 1.08653485e+09 1.08653502e+09 1.08653519e+09
 1.08653536e+09 1.08653552e+09 1.08653569e+09 1.08653586e+09
 1.08653603e+09 1.08653620e+09 1.08653636e+09 1.08653653e+09
 1.08653670e+09 1.08653687e+09 1.08653703e+09 1.08653720e+09
 1.08653737e+09 1.08653754e+09 1.08653771e+09 1.08653787e+09
 1.08653804e+09 1.08653821e+09 1.08653838e+09 1.08653855e+09
 1.08653871e+09 1.08653888e+09 1.08653905e+09 1.08653922e+09
 1.08653938e+09 1.08653955e+09 1.08653972e+09 1.08653989e+09
 1.08654006e+09 1.08654022e+09 1.08654039e+09 1.08654056e+09
 1.08654073e+09 1.08654090e+09 1.08654106e+09 1.08654123e+09
 1.08654140e+09 1.08654157e+09 1.08654173e+09 1.08654190e+09
 1.08654207e+09 1.08654224e+09 1.08654241e+09 1.08654257e+09
 1.08654274e+09 1.08654291e+09 1.08654308e+09 1.08654324e+09
 1.08654341e+09 1.08654358e+09 1.08654375e+09 1.08654392e+09
 1.08654408e+09 1.08654425e+09 1.08654442e+09 1.08654459e+09
 1.08654476e+09 1.08654492e+09 1.08654509e+09 1.08654526e+09
 1.08654543e+09 1.08654559e+09 1.08654576e+09 1.08654593e+09
 1.08654610e+09 1.08654627e+09 1.08654643e+09 1.08654660e+09
 1.08654677e+09 1.08654694e+09 1.08654711e+09 1.08654727e+09
 1.08654744e+09 1.08654761e+09 1.08654778e+09 1.08654794e+09
 1.08654811e+09 1.08654828e+09 1.08654845e+09 1.08654862e+09
 1.08654878e+09 1.08654895e+09 1.08654912e+09 1.08654929e+09
 1.08654945e+09 1.08654962e+09 1.08654979e+09 1.08654996e+09
 1.08655013e+09 1.08655029e+09 1.08655046e+09 1.08655063e+09
 1.08655080e+09 1.08655097e+09 1.08655113e+09 1.08655130e+09
 1.08655147e+09 1.08655164e+09 1.08655180e+09 1.08655197e+09
 1.08655214e+09 1.08655231e+09 1.08655248e+09 1.08655264e+09
 1.08655281e+09 1.08655298e+09 1.08655315e+09 1.08655332e+09
 1.08655348e+09 1.08655365e+09 1.08655382e+09 1.08655399e+09
 1.08655415e+09 1.08655432e+09 1.08655449e+09 1.08655466e+09
 1.08655483e+09 1.08655499e+09 1.08655516e+09 1.08655533e+09
 1.08655550e+09 1.08655567e+09 1.08655583e+09 1.08655600e+09
